,player_name,season,depth,targets,receptions,receiving_yards,receiving_air_yards,yards_after_catch,reception_td,reception_fumble_lost,fantasy_points_ppr,air_yards_share,target_share,rec_td_pct,yptarget,ypr,rush_td_pct,ypc,touches,total_tds,td_pct,total_yards,yptouch,games,pass_ypg,rec_ypg,rush_ypg,ypg,ppg,passer_rating,offense_pct,offense_snaps,yards_pct,draft_year,draft_round,draft_pick,draft_ovr,height,weight_x,age,wins,losses,ties,win_pct,seasons_played,career_targets,average_targets,career_receptions,average_receptions,career_receiving_yards,average_receiving_yards,career_receiving_air_yards,average_receiving_air_yards,career_yards_after_catch,average_yards_after_catch,career_reception_td,average_reception_td,career_reception_fumble_lost,average_reception_fumble_lost,career_fantasy_points_ppr,average_fantasy_points_ppr,career_touches,average_touches,career_total_tds,average_total_tds,career_total_yards,average_total_yards,career_games,average_games,career_offense_snaps,average_offense_snaps,average_comp_pct,average_int_pct,average_pass_td_pct,average_ypa,average_rec_td_pct,average_yptarget,average_ypr,average_rush_td_pct,average_ypc,average_td_pct,average_yptouch,average_pass_ypg,average_rec_ypg,average_rush_ypg,average_ypg,average_ppg,injuries,career_injuries,combineId,playerId,combineYear,combineHeight,combineWeight,combineHand,collegeId,heightInches,weight_y,combineArm,combine40yd,combineVert,combineBench,combineShuttle,combineBroad,combine3cone,combine60ydShuttle,combineWonderlic
0,A.J. Brown,2019,2.0,84.0,52.0,1051.0,1107.0,465.0,8.0,0.0,217.1,0.231,0.145,0.095,12.51,20.21,0.333,20.0,55.0,9.0,0.16,1111.0,20.2,16.0,0.0,65.69,3.75,69.44,13.57,0.0,0.689,639,0.114,2019.0,2.0,19.0,51.0,73.0,226.0,22,9,7,0,0.562,0.0,84.0,84.0,52.0,52.0,1051.0,1051.0,1107.0,1107.0,465.0,465.0,8.0,8.0,0.0,0.0,217.1000061035156,217.1000061035156,55.0,55.0,9.0,9.0,1111.0,1111.0,16.0,16.0,639.0,639.0,0.0,0.0,0.0,0.0,0.095,12.51,20.21,0.333,20.0,0.16,20.2,0.0,65.69,3.75,69.44,13.57,0.0,0.0,20267.0,20190051.0,2019.0,72.0,226.0,9.586666666666668,38677.0,73.0,230.0,32.67433333333334,4.49,36.5,19.0,4.243622902270483,120.0,6.9371444695259585,11.728636363636362,19.495495495495497
1,A.J. Green,2012,1.0,164.0,97.0,1350.0,2235.0,381.0,12.0,1.0,304.8,0.477,0.281,0.073,8.23,13.92,0.0,9.5,101.0,12.0,0.12,1388.0,13.74,16.0,0.0,84.38,2.38,86.75,19.05,0.0,0.904,899,0.152,2011.0,1.0,4.0,4.0,76.0,210.0,24,10,6,0,0.625,1.0,164.0,164.0,97.0,97.0,1350.0,1350.0,2235.0,2235.0,381.0,381.0,12.0,12.0,1.0,1.0,304.79998779296875,304.79998779296875,101.0,101.0,12.0,12.0,1388.0,1388.0,16.0,16.0,899.0,899.0,0.0,0.0,0.0,0.0,0.073,8.23,13.92,0.0,9.5,0.12,13.74,0.0,84.38,2.38,86.75,19.05,2.0,2.0,17440.0,20110004.0,2011.0,75.63,211.0,9.586666666666668,30602.0,76.0,210.0,32.67433333333334,4.48,34.5,18.0,4.21,126.0,6.91,11.728636363636362,10.0
2,A.J. Jenkins,2012,3.0,1.0,0.0,0.0,2.0,0.0,0.0,0.0,0.0,0.001,0.002,0.0,0.0,0.0,0.0,0.0,0.0,0.0,0.0,0.0,0.0,1.0,0.0,0.0,0.0,0.0,0.0,0.0,0.18,171,0.0,2012.0,1.0,30.0,30.0,73.0,195.0,22,11,5,1,0.647,0.0,1.0,1.0,0.0,0.0,0.0,0.0,2.0,2.0,0.0,0.0,0.0,0.0,0.0,0.0,0.0,0.0,0.0,0.0,0.0,0.0,0.0,0.0,1.0,1.0,171.0,171.0,0.0,0.0,0.0,0.0,0.0,0.0,0.0,0.0,0.0,0.0,0.0,0.0,0.0,0.0,0.0,0.0,1.0,40.0,10715.0,19890228.0,1989.0,73.6,227.0,9.586666666666668,92831.0,74.0,237.0,32.67433333333334,4.77,34.5,15.0,4.48,121.0,6.9371444695259585,11.728636363636362,19.495495495495497
3,A.T. Perry,2023,2.0,18.0,12.0,246.0,293.0,20.0,4.0,0.0,60.6,0.054,0.026,0.222,13.67,20.5,0.0,0.0,12.0,4.0,0.33,246.0,20.5,8.0,0.0,30.75,0.0,30.75,7.57,0.0,0.53,584,0.025,2023.0,6.0,18.0,195.0,77.0,205.0,24,9,8,0,0.529,0.0,18.0,18.0,12.0,12.0,246.0,246.0,293.0,293.0,20.0,20.0,4.0,4.0,0.0,0.0,60.59999847412109,60.59999847412109,12.0,12.0,4.0,4.0,246.0,246.0,8.0,8.0,584.0,584.0,0.0,0.0,0.0,0.0,0.222,13.67,20.5,0.0,0.0,0.33,20.5,0.0,30.75,0.0,30.75,7.57,1.0,1.0,17709.69645390071,20112021.9964539,2011.186524822695,72.68675177304964,207.25886524822695,9.586666666666668,52200.00992907801,72.80425531914894,207.31560283687944,32.67433333333334,4.5200463320463315,35.373366013071895,15.492,4.243622902270483,120.43132328308208,6.9371444695259585,11.728636363636362,19.495495495495497
4,Aaron Burbridge,2016,2.0,16.0,7.0,88.0,139.0,43.0,0.0,0.0,15.8,0.036,0.034,0.0,5.5,12.57,0.0,0.0,7.0,0.0,0.0,88.0,12.57,8.0,0.0,11.0,0.0,11.0,1.98,0.0,0.235,232,0.011,2016.0,6.0,38.0,213.0,73.0,208.0,23,2,14,0,0.125,0.0,16.0,16.0,7.0,7.0,88.0,88.0,139.0,139.0,43.0,43.0,0.0,0.0,0.0,0.0,15.800000190734863,15.800000190734863,7.0,7.0,0.0,0.0,88.0,88.0,8.0,8.0,232.0,232.0,0.0,0.0,0.0,0.0,0.0,5.5,12.57,0.0,0.0,0.0,12.57,0.0,11.0,0.0,11.0,1.98,1.0,3.0,19352.0,20160213.0,2016.0,72.0,206.0,9.586666666666668,48824.0,73.0,208.0,32.67433333333334,4.56,30.5,20.0,4.31,115.0,7.22,11.728636363636362,19.495495495495497
5,Aaron Dobson,2013,2.0,72.0,37.0,519.0,995.0,185.0,4.0,0.0,112.9,0.18,0.108,0.056,7.21,14.03,0.0,0.0,37.0,4.0,0.11,519.0,14.03,11.0,0.0,47.18,0.0,47.18,10.26,0.0,0.624,698,0.049,2013.0,2.0,27.0,59.0,75.0,205.0,22,12,4,0,0.75,0.0,72.0,72.0,37.0,37.0,519.0,519.0,995.0,995.0,185.0,185.0,4.0,4.0,0.0,0.0,112.9000015258789,112.9000015258789,37.0,37.0,4.0,4.0,519.0,519.0,11.0,11.0,698.0,698.0,0.0,0.0,0.0,0.0,0.056,7.21,14.03,0.0,0.0,0.11,14.03,0.0,47.18,0.0,47.18,10.26,11.0,11.0,17709.69645390071,20112021.9964539,2011.186524822695,72.68675177304964,207.25886524822695,9.586666666666668,52200.00992907801,72.80425531914894,207.31560283687944,32.67433333333334,4.5200463320463315,35.373366013071895,15.492,4.243622902270483,120.43132328308208,6.9371444695259585,11.728636363636362,19.495495495495497
6,Ace Sanders,2013,1.0,86.0,51.0,484.0,502.0,297.0,1.0,0.0,112.64,0.1,0.135,0.012,5.63,9.49,0.0,2.0,54.0,2.0,0.04,509.0,9.43,15.0,1.4,32.27,0.27,33.93,7.51,158.3,0.604,615,0.06,2013.0,4.0,4.0,101.0,67.0,178.0,22,4,12,0,0.25,0.0,86.0,86.0,51.0,51.0,484.0,484.0,502.0,502.0,297.0,297.0,1.0,1.0,0.0,0.0,112.63999938964844,112.63999938964844,54.0,54.0,2.0,2.0,509.0,509.0,15.0,15.0,615.0,615.0,1.0,0.0,1.0,21.0,0.012,5.63,9.49,0.0,2.0,0.04,9.43,1.4,32.27,0.27,33.93,7.51,4.0,4.0,18192.0,20130101.0,2013.0,67.0,173.0,9.586666666666668,29208.0,67.0,178.0,32.67433333333334,4.58,32.0,7.0,4.37,117.0,6.81,11.728636363636362,19.495495495495497
7,Adam Humphries,2015,2.0,41.0,27.0,260.0,270.0,123.0,2.0,0.0,65.0,0.048,0.069,0.049,6.34,9.63,0.0,0.0,27.0,2.0,0.07,260.0,9.63,11.0,0.0,23.64,0.0,23.64,5.91,0.0,0.488,491,0.026,2015.0,8.0,48.0,263.0,71.0,195.0,22,6,10,0,0.375,0.0,41.0,41.0,27.0,27.0,260.0,260.0,270.0,270.0,123.0,123.0,2.0,2.0,0.0,0.0,65.0,65.0,27.0,27.0,2.0,2.0,260.0,260.0,11.0,11.0,491.0,491.0,0.0,0.0,0.0,0.0,0.049,6.34,9.63,0.0,0.0,0.07,9.63,0.0,23.64,0.0,23.64,5.91,4.0,4.0,17709.69645390071,20112021.9964539,2011.186524822695,72.68675177304964,207.25886524822695,9.586666666666668,52200.00992907801,72.80425531914894,207.31560283687944,32.67433333333334,4.5200463320463315,35.373366013071895,15.492,4.243622902270483,120.43132328308208,6.9371444695259585,11.728636363636362,19.495495495495497
8,Adam Thielen,2014,2.0,13.0,8.0,137.0,170.0,34.0,1.0,0.0,27.7,0.051,0.025,0.077,10.54,17.12,0.0,0.0,8.0,1.0,0.12,137.0,17.12,6.0,0.0,22.83,0.0,22.83,4.62,0.0,0.155,149,0.016,2014.0,8.0,48.0,263.0,74.0,195.0,24,7,9,0,0.438,0.0,13.0,13.0,8.0,8.0,137.0,137.0,170.0,170.0,34.0,34.0,1.0,1.0,0.0,0.0,27.700000762939453,27.700000762939453,8.0,8.0,1.0,1.0,137.0,137.0,6.0,6.0,149.0,149.0,0.0,0.0,0.0,0.0,0.077,10.54,17.12,0.0,0.0,0.12,17.12,0.0,22.83,0.0,22.83,4.62,4.0,12.0,17709.69645390071,20112021.9964539,2011.186524822695,72.68675177304964,207.25886524822695,9.586666666666668,52200.00992907801,72.80425531914894,207.31560283687944,32.67433333333334,4.5200463320463315,35.373366013071895,15.492,4.243622902270483,120.43132328308208,6.9371444695259585,11.728636363636362,19.495495495495497
9,Albert Wilson,2014,3.0,28.0,16.0,260.0,264.0,119.0,0.0,0.0,42.0,0.067,0.055,0.0,9.29,16.25,0.0,0.0,16.0,0.0,0.0,260.0,16.25,7.0,0.0,37.14,0.0,37.14,6.0,0.0,0.418,399,0.03,2014.0,8.0,48.0,263.0,69.0,195.0,22,9,7,0,0.562,0.0,28.0,28.0,16.0,16.0,260.0,260.0,264.0,264.0,119.0,119.0,0.0,0.0,0.0,0.0,42.0,42.0,16.0,16.0,0.0,0.0,260.0,260.0,7.0,7.0,399.0,399.0,0.0,0.0,0.0,0.0,0.0,9.29,16.25,0.0,0.0,0.0,16.25,0.0,37.14,0.0,37.14,6.0,2.0,2.0,18567.0,20140613.0,2014.0,69.0,202.0,9.586666666666668,30303.0,69.0,200.0,32.67433333333334,4.43,37.5,10.0,4.21,123.0,7.0,11.728636363636362,19.495495495495497
10,Aldrick Robinson,2012,3.0,19.0,11.0,237.0,407.0,62.0,3.0,0.0,54.1,0.107,0.04,0.158,12.47,21.55,0.0,14.0,12.0,3.0,0.25,251.0,20.92,9.0,0.0,26.33,1.56,27.89,6.01,0.0,0.217,213,0.026,2011.0,6.0,13.0,178.0,70.0,185.0,24,10,6,0,0.625,1.0,19.0,19.0,11.0,11.0,237.0,237.0,407.0,407.0,62.0,62.0,3.0,3.0,0.0,0.0,54.09999847412109,54.09999847412109,12.0,12.0,3.0,3.0,251.0,251.0,9.0,9.0,213.0,213.0,0.0,0.0,0.0,0.0,0.158,12.47,21.55,0.0,14.0,0.25,20.92,0.0,26.33,1.56,27.89,6.01,1.0,1.0,17564.0,20110178.0,2011.0,69.63,184.0,9.586666666666668,75205.0,70.0,187.0,32.67433333333334,4.35,40.0,17.0,4.09,126.0,6.65,11.728636363636362,19.495495495495497
11,Alec Pierce,2022,1.0,78.0,41.0,593.0,914.0,113.0,2.0,0.0,112.3,0.143,0.118,0.026,7.6,14.46,0.0,0.0,41.0,2.0,0.05,593.0,14.46,16.0,0.0,37.06,0.0,37.06,7.02,0.0,0.664,730,0.065,2022.0,2.0,21.0,53.0,75.0,211.0,22,4,13,1,0.222,0.0,78.0,78.0,41.0,41.0,593.0,593.0,914.0,914.0,113.0,113.0,2.0,2.0,0.0,0.0,112.3000030517578,112.3000030517578,41.0,41.0,2.0,2.0,593.0,593.0,16.0,16.0,730.0,730.0,0.0,0.0,0.0,0.0,0.026,7.6,14.46,0.0,0.0,0.05,14.46,0.0,37.06,0.0,37.06,7.02,1.0,1.0,17709.69645390071,20112021.9964539,2011.186524822695,72.68675177304964,207.25886524822695,9.586666666666668,52200.00992907801,72.80425531914894,207.31560283687944,32.67433333333334,4.5200463320463315,35.373366013071895,15.492,4.243622902270483,120.43132328308208,6.9371444695259585,11.728636363636362,19.495495495495497
12,Alex Erickson,2016,2.0,8.0,6.0,71.0,85.0,31.0,0.0,0.0,13.1,0.018,0.014,0.0,8.88,11.83,0.0,0.0,6.0,0.0,0.0,71.0,11.83,6.0,0.0,11.83,0.0,11.83,2.18,0.0,0.092,95,0.007,2016.0,8.0,48.0,263.0,72.0,195.0,24,6,10,1,0.353,0.0,8.0,8.0,6.0,6.0,71.0,71.0,85.0,85.0,31.0,31.0,0.0,0.0,0.0,0.0,13.100000381469728,13.100000381469728,6.0,6.0,0.0,0.0,71.0,71.0,6.0,6.0,95.0,95.0,0.0,0.0,0.0,0.0,0.0,8.88,11.83,0.0,0.0,0.0,11.83,0.0,11.83,0.0,11.83,2.18,4.0,8.0,17709.69645390071,20112021.9964539,2011.186524822695,72.68675177304964,207.25886524822695,9.586666666666668,52200.00992907801,72.80425531914894,207.31560283687944,32.67433333333334,4.5200463320463315,35.373366013071895,15.492,4.243622902270483,120.43132328308208,6.9371444695259585,11.728636363636362,19.495495495495497
13,Alexander Hollins,2019,3.0,4.0,2.0,46.0,75.0,6.0,0.0,0.0,6.6,0.022,0.008,0.0,11.5,23.0,0.0,0.0,2.0,0.0,0.0,46.0,23.0,2.0,0.0,23.0,0.0,23.0,3.3,0.0,0.27,258,0.005,2019.0,8.0,48.0,263.0,73.0,166.0,23,10,6,0,0.625,0.0,4.0,4.0,2.0,2.0,46.0,46.0,75.0,75.0,6.0,6.0,0.0,0.0,0.0,0.0,6.599999904632568,6.599999904632568,2.0,2.0,0.0,0.0,46.0,46.0,2.0,2.0,258.0,258.0,0.0,0.0,0.0,0.0,0.0,11.5,23.0,0.0,0.0,0.0,23.0,0.0,23.0,0.0,23.0,3.3,4.0,15.0,17709.69645390071,20112021.9964539,2011.186524822695,72.68675177304964,207.25886524822695,9.586666666666668,52200.00992907801,72.80425531914894,207.31560283687944,32.67433333333334,4.5200463320463315,35.373366013071895,15.492,4.243622902270483,120.43132328308208,6.9371444695259585,11.728636363636362,19.495495495495497
14,Allen Hurns,2014,2.0,97.0,51.0,677.0,1051.0,205.0,8.0,0.0,166.7,0.21,0.152,0.082,6.98,13.27,0.0,0.0,51.0,8.0,0.16,677.0,13.27,16.0,0.0,42.31,0.0,42.31,10.42,0.0,0.769,759,0.084,2014.0,8.0,48.0,263.0,73.0,195.0,23,3,13,0,0.188,0.0,97.0,97.0,51.0,51.0,677.0,677.0,1051.0,1051.0,205.0,205.0,8.0,8.0,0.0,0.0,166.6999969482422,166.6999969482422,51.0,51.0,8.0,8.0,677.0,677.0,16.0,16.0,759.0,759.0,0.0,0.0,0.0,0.0,0.082,6.98,13.27,0.0,0.0,0.16,13.27,0.0,42.31,0.0,42.31,10.42,4.0,4.0,18393.0,20140593.0,2014.0,73.25,198.0,9.586666666666668,33124.0,75.0,201.0,32.67433333333334,4.55,31.0,14.0,4.5,120.0,7.23,11.728636363636362,19.495495495495497
15,Allen Lazard,2018,3.0,1.0,1.0,7.0,7.0,0.0,0.0,0.0,1.7,0.002,0.002,0.0,7.0,7.0,0.0,0.0,1.0,0.0,0.0,7.0,7.0,1.0,0.0,7.0,0.0,7.0,1.7,0.0,0.02,20,0.001,2018.0,8.0,48.0,263.0,77.0,227.0,23,6,10,1,0.353,0.0,1.0,1.0,1.0,1.0,7.0,7.0,7.0,7.0,0.0,0.0,0.0,0.0,0.0,0.0,1.7000000476837158,1.7000000476837158,1.0,1.0,0.0,0.0,7.0,7.0,1.0,1.0,20.0,20.0,0.0,0.0,0.0,0.0,0.0,7.0,7.0,0.0,0.0,0.0,7.0,0.0,7.0,0.0,7.0,1.7,2.0,31.0,20121.0,20180556.0,2018.0,77.0,227.0,9.586666666666668,50011.0,76.0,227.0,32.67433333333334,4.55,38.0,17.0,4.243622902270483,122.0,6.9371444695259585,11.728636363636362,19.495495495495497
16,Allen Robinson,2014,1.0,82.0,48.0,550.0,897.0,159.0,2.0,0.0,115.0,0.18,0.129,0.024,6.71,11.46,0.0,0.0,48.0,2.0,0.04,550.0,11.46,10.0,0.0,55.0,0.0,55.0,11.5,0.0,0.778,768,0.068,2014.0,2.0,29.0,61.0,74.0,210.0,21,3,13,0,0.188,0.0,82.0,82.0,48.0,48.0,550.0,550.0,897.0,897.0,159.0,159.0,2.0,2.0,0.0,0.0,115.0,115.0,48.0,48.0,2.0,2.0,550.0,550.0,10.0,10.0,768.0,768.0,0.0,0.0,0.0,0.0,0.024,6.71,11.46,0.0,0.0,0.04,11.46,0.0,55.0,0.0,55.0,11.5,1.0,1.0,18504.0,20140061.0,2014.0,74.63,220.0,9.586666666666668,16802.0,75.0,211.0,32.67433333333334,4.6,39.0,15.492,4.0,126.0,7.0,11.728636363636362,19.495495495495497
17,Alshon Jeffery,2012,2.0,48.0,24.0,367.0,797.0,65.0,3.0,0.0,78.7,0.165,0.091,0.062,7.65,15.29,0.0,0.0,24.0,3.0,0.12,367.0,15.29,10.0,0.0,36.7,0.0,36.7,7.87,0.0,0.66,648,0.044,2012.0,2.0,13.0,45.0,75.0,218.0,22,10,6,0,0.625,0.0,48.0,48.0,24.0,24.0,367.0,367.0,797.0,797.0,65.0,65.0,3.0,3.0,0.0,0.0,78.69999694824219,78.69999694824219,24.0,24.0,3.0,3.0,367.0,367.0,10.0,10.0,648.0,648.0,0.0,0.0,0.0,0.0,0.062,7.65,15.29,0.0,0.0,0.12,15.29,0.0,36.7,0.0,36.7,7.87,8.0,8.0,17794.0,20120045.0,2012.0,74.88,216.0,9.586666666666668,29208.0,75.0,218.0,32.67433333333334,4.48,35.373366013071895,15.492,4.243622902270483,120.43132328308208,6.9371444695259585,11.728636363636362,19.495495495495497
18,Amara Darboh,2017,3.0,13.0,8.0,71.0,157.0,16.0,0.0,0.0,15.1,0.039,0.03,0.0,5.46,8.88,0.0,0.0,8.0,0.0,0.0,71.0,8.88,8.0,0.0,8.88,0.0,8.88,1.89,0.0,0.176,174,0.008,2017.0,3.0,43.0,106.0,74.0,215.0,23,9,7,0,0.562,0.0,13.0,13.0,8.0,8.0,71.0,71.0,157.0,157.0,16.0,16.0,0.0,0.0,0.0,0.0,15.100000381469728,15.100000381469728,8.0,8.0,0.0,0.0,71.0,71.0,8.0,8.0,174.0,174.0,0.0,0.0,0.0,0.0,0.0,5.46,8.88,0.0,0.0,0.0,8.88,0.0,8.88,0.0,8.88,1.89,2.0,14.0,19694.0,20170106.0,2017.0,73.75,214.0,9.586666666666668,48109.0,74.0,219.0,32.67433333333334,4.45,36.0,17.0,4.26,124.0,6.9371444695259585,11.728636363636362,19.495495495495497
19,Amari Cooper,2018,1.0,107.0,75.0,1005.0,1048.0,415.0,7.0,2.0,213.5,0.181,0.154,0.065,9.39,13.4,0.0,10.0,77.0,7.0,0.09,1025.0,13.31,9.0,0.0,111.67,2.22,113.89,23.72,0.0,0.808,814,0.109,2015.0,1.0,4.0,4.0,73.0,211.0,24,10,6,0,0.625,3.0,107.0,35.666666666666664,75.0,25.0,1005.0,335.0,1048.0,349.3333333333333,415.0,138.33333333333334,7.0,2.333333333333333,2.0,0.6666666666666666,213.5,71.16666666666667,77.0,25.666666666666668,7.0,2.333333333333333,1025.0,341.6666666666667,9.0,3.0,814.0,271.3333333333333,0.0,0.0,0.0,0.0,0.065,9.39,13.4,0.0,10.0,0.09,13.31,0.0,111.67,2.22,113.89,23.72,2.0,14.0,18631.0,20150004.0,2015.0,72.7,211.0,9.586666666666668,35487.0,73.0,210.0,32.67433333333334,4.42,33.0,15.492,3.98,120.0,6.71,11.728636363636362,19.495495495495497
20,Amari Rodgers,2021,2.0,9.0,4.0,45.0,40.0,24.0,0.0,0.0,9.6,0.009,0.015,0.0,5.0,11.25,0.0,11.0,5.0,0.0,0.0,56.0,11.2,4.0,0.0,11.25,2.75,14.0,2.4,0.0,0.13,136,0.005,2021.0,3.0,21.0,85.0,69.0,212.0,22,13,4,0,0.765,0.0,9.0,9.0,4.0,4.0,45.0,45.0,40.0,40.0,24.0,24.0,0.0,0.0,0.0,0.0,9.600000381469728,9.600000381469728,5.0,5.0,0.0,0.0,56.0,56.0,4.0,4.0,136.0,136.0,0.0,0.0,0.0,0.0,0.0,5.0,11.25,0.0,11.0,0.0,11.2,0.0,11.25,2.75,14.0,2.4,4.0,25.0,17709.69645390071,20112021.9964539,2011.186524822695,72.68675177304964,207.25886524822695,9.586666666666668,52200.00992907801,72.80425531914894,207.31560283687944,32.67433333333334,4.5200463320463315,35.373366013071895,15.492,4.243622902270483,120.43132328308208,6.9371444695259585,11.728636363636362,19.495495495495497
21,Amon-Ra St. Brown,2021,2.0,121.0,90.0,916.0,831.0,424.0,5.0,0.0,223.7,0.129,0.158,0.041,7.57,10.18,0.143,8.71,97.0,6.0,0.06,977.0,10.07,16.0,0.0,57.25,3.81,61.06,13.98,0.0,0.748,789,0.104,2021.0,4.0,7.0,112.0,72.0,202.0,22,3,14,1,0.167,0.0,121.0,121.0,90.0,90.0,916.0,916.0,831.0,831.0,424.0,424.0,5.0,5.0,0.0,0.0,223.6999969482422,223.6999969482422,97.0,97.0,6.0,6.0,977.0,977.0,16.0,16.0,789.0,789.0,0.0,0.0,0.0,0.0,0.041,7.57,10.18,0.143,8.71,0.06,10.07,0.0,57.25,3.81,61.06,13.98,2.0,3.0,17709.69645390071,20112021.9964539,2011.186524822695,72.68675177304964,207.25886524822695,9.586666666666668,52200.00992907801,72.80425531914894,207.31560283687944,32.67433333333334,4.5200463320463315,35.373366013071895,15.492,4.243622902270483,120.43132328308208,6.9371444695259585,11.728636363636362,19.495495495495497
22,Andre Caldwell,2012,3.0,4.0,1.0,18.0,47.0,2.0,0.0,0.0,4.2,0.01,0.007,0.0,4.5,18.0,0.0,14.0,2.0,0.0,0.0,32.0,16.0,3.0,0.0,6.0,4.67,10.67,1.4,0.0,0.232,247,0.003,2008.0,3.0,34.0,97.0,72.0,200.0,27,13,3,0,0.812,4.0,4.0,1.0,1.0,0.25,18.0,4.5,47.0,11.75,2.0,0.5,0.0,0.0,0.0,0.0,4.199999809265137,1.0499999523162842,2.0,0.5,0.0,0.0,32.0,8.0,3.0,0.75,247.0,61.75,0.0,0.0,0.0,0.0,0.0,4.5,18.0,0.0,14.0,0.0,16.0,0.0,6.0,4.67,10.67,1.4,1.0,4.0,16545.0,20080097.0,2008.0,72.25,204.0,9.586666666666668,32611.0,73.0,200.0,32.67433333333334,4.39,33.0,15.492,4.11,124.0,6.75,11.728636363636362,19.495495495495497
23,Andre Holmes,2012,3.0,2.0,2.0,11.0,8.0,3.0,0.0,0.0,3.1,0.001,0.003,0.0,5.5,5.5,0.0,0.0,2.0,0.0,0.0,11.0,5.5,2.0,0.0,5.5,0.0,5.5,1.55,0.0,0.105,108,0.001,2011.0,8.0,48.0,263.0,76.0,210.0,24,8,8,0,0.5,1.0,2.0,2.0,2.0,2.0,11.0,11.0,8.0,8.0,3.0,3.0,0.0,0.0,0.0,0.0,3.0999999046325684,3.0999999046325684,2.0,2.0,0.0,0.0,11.0,11.0,2.0,2.0,108.0,108.0,0.0,0.0,0.0,0.0,0.0,5.5,5.5,0.0,0.0,0.0,5.5,0.0,5.5,0.0,5.5,1.55,3.0,3.0,17461.0,20110496.0,2011.0,76.38,210.0,9.586666666666668,49242.0,76.0,210.0,32.67433333333334,4.51,35.0,11.0,4.31,130.0,6.69,11.728636363636362,19.495495495495497
24,Andre Johnson,2012,1.0,163.0,112.0,1598.0,1848.0,548.0,4.0,0.0,295.8,0.419,0.28,0.025,9.8,14.27,0.0,0.0,112.0,4.0,0.04,1598.0,14.27,16.0,0.0,99.88,0.0,99.88,18.49,0.0,0.868,931,0.159,2003.0,1.0,3.0,3.0,75.0,229.0,31,12,4,0,0.75,9.0,163.0,18.11111111111111,112.0,12.444444444444445,1598.0,177.55555555555554,1848.0,205.33333333333331,548.0,60.888888888888886,4.0,0.4444444444444444,0.0,0.0,295.79998779296875,32.866665310329864,112.0,12.444444444444445,4.0,0.4444444444444444,1598.0,177.55555555555554,16.0,1.7777777777777777,931.0,103.44444444444444,0.0,0.0,0.0,0.0,0.025,9.8,14.27,0.0,0.0,0.04,14.27,0.0,99.88,0.0,99.88,18.49,5.0,5.0,13184.0,19960030.0,1996.0,77.5,309.0,10.63,16802.0,77.0,314.0,34.13,4.5200463320463315,35.373366013071895,15.492,4.243622902270483,120.43132328308208,6.9371444695259585,11.728636363636362,19.495495495495497
25,Andre Patton,2019,2.0,17.0,6.0,56.0,272.0,28.0,0.0,0.0,11.6,0.069,0.03,0.0,3.29,9.33,0.0,0.0,6.0,0.0,0.0,56.0,9.33,7.0,0.0,8.0,0.0,8.0,1.66,0.0,0.637,628,0.005,2017.0,8.0,48.0,263.0,74.0,200.0,25,5,11,0,0.312,2.0,17.0,8.5,6.0,3.0,56.0,28.0,272.0,136.0,28.0,14.0,0.0,0.0,0.0,0.0,11.600000381469728,5.800000190734863,6.0,3.0,0.0,0.0,56.0,28.0,7.0,3.5,628.0,314.0,0.0,0.0,0.0,0.0,0.0,3.29,9.33,0.0,0.0,0.0,9.33,0.0,8.0,0.0,8.0,1.66,1.0,1.0,17709.69645390071,20112021.9964539,2011.186524822695,72.68675177304964,207.25886524822695,9.586666666666668,52200.00992907801,72.80425531914894,207.31560283687944,32.67433333333334,4.5200463320463315,35.373366013071895,15.492,4.243622902270483,120.43132328308208,6.9371444695259585,11.728636363636362,19.495495495495497
26,Andre Roberts,2012,2.0,114.0,64.0,759.0,1091.0,221.0,6.0,0.0,178.8,0.224,0.171,0.053,6.66,11.86,0.0,7.25,68.0,6.0,0.09,788.0,11.59,15.0,0.0,50.6,1.93,52.53,11.92,0.0,0.835,845,0.104,2010.0,3.0,24.0,88.0,71.0,195.0,24,5,11,0,0.312,2.0,114.0,57.0,64.0,32.0,759.0,379.5,1091.0,545.5,221.0,110.5,6.0,3.0,0.0,0.0,178.8000030517578,89.4000015258789,68.0,34.0,6.0,3.0,788.0,394.0,15.0,7.5,845.0,422.5,0.0,0.0,0.0,0.0,0.053,6.66,11.86,0.0,7.25,0.09,11.59,0.0,50.6,1.93,52.53,11.92,4.0,4.0,17267.0,20100088.0,2010.0,70.88,195.0,9.586666666666668,29409.0,71.0,195.0,32.67433333333334,4.4,36.0,15.0,4.15,120.0,6.77,11.728636363636362,19.495495495495497
27,Andrei Iosivas,2023,2.0,25.0,15.0,116.0,215.0,35.0,4.0,0.0,50.6,0.046,0.043,0.16,4.64,7.73,0.0,0.0,15.0,4.0,0.27,116.0,7.73,9.0,0.0,12.89,0.0,12.89,5.62,0.0,0.259,267,0.012,2023.0,6.0,29.0,206.0,75.0,205.0,24,9,8,0,0.529,0.0,25.0,25.0,15.0,15.0,116.0,116.0,215.0,215.0,35.0,35.0,4.0,4.0,0.0,0.0,50.59999847412109,50.59999847412109,15.0,15.0,4.0,4.0,116.0,116.0,9.0,9.0,267.0,267.0,0.0,0.0,0.0,0.0,0.16,4.64,7.73,0.0,0.0,0.27,7.73,0.0,12.89,0.0,12.89,5.62,1.0,1.0,17709.69645390071,20112021.9964539,2011.186524822695,72.68675177304964,207.25886524822695,9.586666666666668,52200.00992907801,72.80425531914894,207.31560283687944,32.67433333333334,4.5200463320463315,35.373366013071895,15.492,4.243622902270483,120.43132328308208,6.9371444695259585,11.728636363636362,19.495495495495497
28,Andy Isabella,2019,2.0,13.0,9.0,189.0,82.0,140.0,1.0,0.0,35.4,0.017,0.02,0.077,14.54,21.0,0.0,3.75,13.0,1.0,0.08,204.0,15.69,9.0,0.0,21.0,1.67,22.67,3.93,0.0,0.174,171,0.022,2019.0,2.0,30.0,62.0,69.0,188.0,23,5,11,1,0.294,0.0,13.0,13.0,9.0,9.0,189.0,189.0,82.0,82.0,140.0,140.0,1.0,1.0,0.0,0.0,35.400001525878906,35.400001525878906,13.0,13.0,1.0,1.0,204.0,204.0,9.0,9.0,171.0,171.0,0.0,0.0,0.0,0.0,0.077,14.54,21.0,0.0,3.75,0.08,15.69,0.0,21.0,1.67,22.67,3.93,1.0,1.0,20379.0,20190062.0,2019.0,69.0,188.0,9.586666666666668,1003.0,69.0,188.0,32.67433333333334,4.31,36.5,15.0,4.15,121.0,6.95,11.728636363636362,19.495495495495497
29,Andy Jones,2018,2.0,24.0,11.0,80.0,219.0,26.0,1.0,0.0,25.0,0.034,0.031,0.042,3.33,7.27,0.0,0.0,11.0,1.0,0.09,80.0,7.27,5.0,0.0,16.0,0.0,16.0,5.0,0.0,0.481,487,0.009,2016.0,8.0,48.0,263.0,73.0,217.0,24,6,10,0,0.375,2.0,24.0,12.0,11.0,5.5,80.0,40.0,219.0,109.5,26.0,13.0,1.0,0.5,0.0,0.0,25.0,12.5,11.0,5.5,1.0,0.5,80.0,40.0,5.0,2.5,487.0,243.5,0.0,0.0,0.0,0.0,0.042,3.33,7.27,0.0,0.0,0.09,7.27,0.0,16.0,0.0,16.0,5.0,1.0,2.0,17709.69645390071,20112021.9964539,2011.186524822695,72.68675177304964,207.25886524822695,9.586666666666668,52200.00992907801,72.80425531914894,207.31560283687944,32.67433333333334,4.5200463320463315,35.373366013071895,15.492,4.243622902270483,120.43132328308208,6.9371444695259585,11.728636363636362,19.495495495495497
30,Anquan Boldin,2012,1.0,113.0,65.0,923.0,1206.0,237.0,5.0,0.0,187.6,0.219,0.189,0.044,8.17,14.2,0.0,3.0,66.0,5.0,0.08,926.0,14.03,15.0,0.0,61.53,0.2,61.73,12.51,0.0,0.871,896,0.096,2003.0,2.0,22.0,54.0,73.0,220.0,32,10,6,0,0.625,9.0,113.0,12.555555555555555,65.0,7.222222222222222,923.0,102.55555555555556,1206.0,134.0,237.0,26.33333333333333,5.0,0.5555555555555556,0.0,0.0,187.6000061035156,20.844445122612846,66.0,7.333333333333333,5.0,0.5555555555555556,926.0,102.88888888888889,15.0,1.6666666666666667,896.0,99.55555555555556,0.0,0.0,0.0,0.0,0.044,8.17,14.2,0.0,3.0,0.08,14.03,0.0,61.53,0.2,61.73,12.51,5.0,5.0,15157.0,20030054.0,2003.0,72.6,216.0,9.586666666666668,32306.0,73.0,220.0,32.67433333333334,4.73,33.5,15.492,4.25,114.0,7.35,11.728636363636362,19.495495495495497
31,Anthony Armstrong,2012,3.0,9.0,3.0,12.0,107.0,3.0,0.0,0.0,4.2,0.025,0.017,0.0,1.33,4.0,0.0,0.0,3.0,0.0,0.0,12.0,4.0,2.0,0.0,6.0,0.0,6.0,2.1,0.0,0.2,192,0.001,2008.0,8.0,48.0,263.0,70.0,185.0,29,7,9,0,0.438,4.0,9.0,2.25,3.0,0.75,12.0,3.0,107.0,26.75,3.0,0.75,0.0,0.0,0.0,0.0,4.199999809265137,1.0499999523162842,3.0,0.75,0.0,0.0,12.0,3.0,2.0,0.5,192.0,48.0,0.0,0.0,0.0,0.0,0.0,1.33,4.0,0.0,0.0,0.0,4.0,0.0,6.0,0.0,6.0,2.1,2.0,2.0,17709.69645390071,20112021.9964539,2011.186524822695,72.68675177304964,207.25886524822695,9.586666666666668,52200.00992907801,72.80425531914894,207.31560283687944,32.67433333333334,4.5200463320463315,35.373366013071895,15.492,4.243622902270483,120.43132328308208,6.9371444695259585,11.728636363636362,19.495495495495497
32,Anthony Miller,2018,2.0,54.0,33.0,423.0,604.0,170.0,7.0,0.0,120.22,0.125,0.102,0.13,7.83,12.82,0.0,4.33,40.0,7.0,0.18,457.0,11.42,14.0,0.57,30.21,1.86,32.64,8.59,118.75,0.568,568,0.049,2018.0,2.0,19.0,51.0,71.0,190.0,24,12,4,0,0.75,0.0,54.0,54.0,33.0,33.0,423.0,423.0,604.0,604.0,170.0,170.0,7.0,7.0,0.0,0.0,120.22000122070312,120.22000122070312,40.0,40.0,7.0,7.0,457.0,457.0,14.0,14.0,568.0,568.0,1.0,0.0,0.0,8.0,0.13,7.83,12.82,0.0,4.33,0.18,11.42,0.57,30.21,1.86,32.64,8.59,1.0,1.0,10462.0,19880015.0,1988.0,70.6,181.0,8.5,37998.0,71.0,190.0,32.67433333333334,4.38,32.0,14.0,4.2,111.0,6.9371444695259585,11.84,19.495495495495497
33,Anthony Schwartz,2021,2.0,23.0,10.0,135.0,396.0,10.0,1.0,0.0,33.4,0.093,0.038,0.043,5.87,13.5,0.0,6.5,16.0,1.0,0.06,174.0,10.88,12.0,0.0,11.25,3.25,14.5,2.78,0.0,0.331,345,0.018,2021.0,3.0,27.0,91.0,72.0,195.0,21,8,9,0,0.471,0.0,23.0,23.0,10.0,10.0,135.0,135.0,396.0,396.0,10.0,10.0,1.0,1.0,0.0,0.0,33.400001525878906,33.400001525878906,16.0,16.0,1.0,1.0,174.0,174.0,12.0,12.0,345.0,345.0,0.0,0.0,0.0,0.0,0.043,5.87,13.5,0.0,6.5,0.06,10.88,0.0,11.25,3.25,14.5,2.78,5.0,5.0,17709.69645390071,20112021.9964539,2011.186524822695,72.68675177304964,207.25886524822695,9.586666666666668,52200.00992907801,72.80425531914894,207.31560283687944,32.67433333333334,4.5200463320463315,35.373366013071895,15.492,4.243622902270483,120.43132328308208,6.9371444695259585,11.728636363636362,19.495495495495497
34,Antoine Green,2023,2.0,2.0,1.0,2.0,11.0,1.0,0.0,0.0,1.2,0.002,0.003,0.0,1.0,2.0,0.0,0.0,1.0,0.0,0.0,2.0,2.0,2.0,0.0,1.0,0.0,1.0,0.6,0.0,0.171,191,0.0,2023.0,7.0,2.0,219.0,74.0,199.0,24,12,5,0,0.706,0.0,2.0,2.0,1.0,1.0,2.0,2.0,11.0,11.0,1.0,1.0,0.0,0.0,0.0,0.0,1.2000000476837158,1.2000000476837158,1.0,1.0,0.0,0.0,2.0,2.0,2.0,2.0,191.0,191.0,0.0,0.0,0.0,0.0,0.0,1.0,2.0,0.0,0.0,0.0,2.0,0.0,1.0,0.0,1.0,0.6,5.0,5.0,17709.69645390071,20112021.9964539,2011.186524822695,72.68675177304964,207.25886524822695,9.586666666666668,52200.00992907801,72.80425531914894,207.31560283687944,32.67433333333334,4.5200463320463315,35.373366013071895,15.492,4.243622902270483,120.43132328308208,6.9371444695259585,11.728636363636362,19.495495495495497
35,Antoine Wesley,2021,2.0,32.0,19.0,208.0,317.0,61.0,3.0,0.0,57.8,0.065,0.048,0.094,6.5,10.95,0.0,0.0,19.0,3.0,0.16,208.0,10.95,8.0,0.0,26.0,0.0,26.0,7.22,0.0,0.439,488,0.019,2019.0,8.0,48.0,263.0,76.0,206.0,24,11,6,0,0.647,2.0,32.0,16.0,19.0,9.5,208.0,104.0,317.0,158.5,61.0,30.5,3.0,1.5,0.0,0.0,57.79999923706055,28.899999618530277,19.0,9.5,3.0,1.5,208.0,104.0,8.0,4.0,488.0,244.0,0.0,0.0,0.0,0.0,0.094,6.5,10.95,0.0,0.0,0.16,10.95,0.0,26.0,0.0,26.0,7.22,1.0,1.0,17709.69645390071,20112021.9964539,2011.186524822695,72.68675177304964,207.25886524822695,9.586666666666668,52200.00992907801,72.80425531914894,207.31560283687944,32.67433333333334,4.5200463320463315,35.373366013071895,15.492,4.243622902270483,120.43132328308208,6.9371444695259585,11.728636363636362,19.495495495495497
36,Antonio Brown,2012,2.0,106.0,66.0,787.0,1059.0,348.0,5.0,1.0,172.1,0.214,0.175,0.047,7.42,11.92,0.0,3.43,75.0,5.0,0.07,811.0,10.81,13.0,0.0,60.54,1.85,62.38,13.24,-206.25,0.753,761,0.087,2010.0,6.0,26.0,195.0,70.0,185.0,24,8,8,0,0.5,2.0,106.0,53.0,66.0,33.0,787.0,393.5,1059.0,529.5,348.0,174.0,5.0,2.5,1.0,0.5,172.10000610351562,86.05000305175781,75.0,37.5,5.0,2.5,811.0,405.5,13.0,6.5,761.0,380.5,0.0,0.5,0.0,0.0,0.047,7.42,11.92,0.0,3.43,0.07,10.81,0.0,60.54,1.85,62.38,13.24,6.0,6.0,17085.0,20100195.0,2010.0,70.13,186.0,9.586666666666668,48858.0,70.0,181.0,32.67433333333334,4.56,33.5,13.0,4.18,105.0,6.98,11.728636363636362,19.495495495495497
37,Antonio Callaway,2018,2.0,82.0,43.0,588.0,1093.0,236.0,7.0,1.0,141.5,0.257,0.136,0.085,7.17,13.67,0.0,3.5,45.0,7.0,0.16,595.0,13.22,16.0,0.0,36.75,0.44,37.19,8.84,0.0,0.713,724,0.058,2018.0,4.0,5.0,105.0,71.0,200.0,21,7,9,1,0.412,0.0,82.0,82.0,43.0,43.0,588.0,588.0,1093.0,1093.0,236.0,236.0,7.0,7.0,1.0,1.0,141.5,141.5,45.0,45.0,7.0,7.0,595.0,595.0,16.0,16.0,724.0,724.0,0.0,0.0,0.0,0.0,0.085,7.17,13.67,0.0,3.5,0.16,13.22,0.0,36.75,0.44,37.19,8.84,1.0,1.0,19989.0,20180105.0,2018.0,71.0,200.0,9.586666666666668,32611.0,71.0,197.0,32.67433333333334,4.41,34.0,15.492,4.243622902270483,121.0,6.9371444695259585,11.728636363636362,19.495495495495497
38,Antonio Gandy-Golden,2020,2.0,7.0,1.0,3.0,79.0,1.0,0.0,0.0,3.5,0.021,0.015,0.0,0.43,3.0,0.0,22.0,2.0,0.0,0.0,25.0,12.5,4.0,0.0,0.75,5.5,6.25,0.88,0.0,0.315,327,0.003,2020.0,4.0,36.0,142.0,76.0,220.0,22,7,9,0,0.438,0.0,7.0,7.0,1.0,1.0,3.0,3.0,79.0,79.0,1.0,1.0,0.0,0.0,0.0,0.0,3.5,3.5,2.0,2.0,0.0,0.0,25.0,25.0,4.0,4.0,327.0,327.0,0.0,0.0,0.0,0.0,0.0,0.43,3.0,0.0,22.0,0.0,12.5,0.0,0.75,5.5,6.25,0.88,1.0,1.0,17709.69645390071,20112021.9964539,2011.186524822695,72.68675177304964,207.25886524822695,9.586666666666668,52200.00992907801,72.80425531914894,207.31560283687944,32.67433333333334,4.5200463320463315,35.373366013071895,15.492,4.243622902270483,120.43132328308208,6.9371444695259585,11.728636363636362,19.495495495495497
39,ArDarius Stewart,2017,2.0,13.0,6.0,82.0,112.0,19.0,0.0,0.0,16.9,0.025,0.024,0.0,6.31,13.67,0.0,3.86,13.0,0.0,0.0,109.0,8.38,9.0,0.0,9.11,3.0,12.11,1.88,0.0,0.238,230,0.013,2017.0,3.0,15.0,79.0,72.0,205.0,24,5,11,0,0.312,0.0,13.0,13.0,6.0,6.0,82.0,82.0,112.0,112.0,19.0,19.0,0.0,0.0,0.0,0.0,16.899999618530273,16.899999618530273,13.0,13.0,0.0,0.0,109.0,109.0,9.0,9.0,230.0,230.0,0.0,0.0,0.0,0.0,0.0,6.31,13.67,0.0,3.86,0.0,8.38,0.0,9.11,3.0,12.11,1.88,1.0,1.0,19914.0,20170079.0,2017.0,71.25,204.0,9.586666666666668,35487.0,71.0,205.0,32.67433333333334,4.49,34.0,15.492,4.21,124.0,6.9371444695259585,11.728636363636362,20.0
40,Armon Binns,2012,2.0,40.0,24.0,277.0,348.0,112.0,1.0,1.0,54.7,0.074,0.069,0.025,6.92,11.54,0.0,0.0,24.0,1.0,0.04,277.0,11.54,6.0,0.0,46.17,0.0,46.17,9.12,0.0,0.561,558,0.03,2011.0,8.0,48.0,263.0,75.0,211.0,23,10,6,0,0.625,1.0,40.0,40.0,24.0,24.0,277.0,277.0,348.0,348.0,112.0,112.0,1.0,1.0,1.0,1.0,54.70000076293945,54.70000076293945,24.0,24.0,1.0,1.0,277.0,277.0,6.0,6.0,558.0,558.0,0.0,0.0,0.0,0.0,0.025,6.92,11.54,0.0,0.0,0.04,11.54,0.0,46.17,0.0,46.17,9.12,3.0,3.0,17366.0,20110601.0,2011.0,75.0,209.0,9.586666666666668,45221.0,75.0,211.0,32.67433333333334,4.5,31.5,13.0,4.31,118.0,6.86,11.728636363636362,19.495495495495497
41,Arrelious Benn,2012,2.0,6.0,4.0,26.0,20.0,23.0,0.0,0.0,8.2,0.004,0.01,0.0,4.33,6.5,0.0,5.33,7.0,0.0,0.0,42.0,6.0,4.0,0.0,6.5,4.0,10.5,2.05,0.0,0.154,154,0.004,2010.0,2.0,7.0,39.0,74.0,228.0,24,7,9,0,0.438,2.0,6.0,3.0,4.0,2.0,26.0,13.0,20.0,10.0,23.0,11.5,0.0,0.0,0.0,0.0,8.199999809265137,4.099999904632568,7.0,3.5,0.0,0.0,42.0,21.0,4.0,2.0,154.0,77.0,0.0,0.0,0.0,0.0,0.0,4.33,6.5,0.0,5.33,0.0,6.0,0.0,6.5,4.0,10.5,2.05,4.0,4.0,17075.0,20100039.0,2010.0,73.0,219.0,9.586666666666668,61801.0,74.0,228.0,32.67433333333334,4.57,37.0,20.0,4.243622902270483,118.0,6.9371444695259585,11.728636363636362,19.495495495495497
42,Ashton Dulin,2019,3.0,2.0,2.0,17.0,-6.0,23.0,0.0,0.0,3.7,0.001,0.003,0.0,8.5,8.5,0.0,0.0,2.0,0.0,0.0,17.0,8.5,2.0,0.0,8.5,0.0,8.5,1.85,0.0,0.135,135,0.002,2019.0,8.0,48.0,263.0,74.0,215.0,22,7,9,0,0.438,0.0,2.0,2.0,2.0,2.0,17.0,17.0,-6.0,-6.0,23.0,23.0,0.0,0.0,0.0,0.0,3.700000047683716,3.700000047683716,2.0,2.0,0.0,0.0,17.0,17.0,2.0,2.0,135.0,135.0,0.0,0.0,0.0,0.0,0.0,8.5,8.5,0.0,0.0,0.0,8.5,0.0,8.5,0.0,8.5,1.85,2.0,8.0,20314.0,20190437.0,2019.0,73.0,215.0,9.586666666666668,44709.0,73.0,215.0,32.67433333333334,4.43,38.0,13.0,4.22,121.0,7.0,11.728636363636362,19.495495495495497
43,Auden Tate,2018,3.0,12.0,4.0,35.0,122.0,2.0,0.0,0.0,7.5,0.026,0.021,0.0,2.92,8.75,0.0,0.0,4.0,0.0,0.0,35.0,8.75,4.0,0.0,8.75,0.0,8.75,1.88,0.0,0.225,209,0.004,2018.0,7.0,35.0,253.0,77.0,228.0,21,6,10,0,0.375,0.0,12.0,12.0,4.0,4.0,35.0,35.0,122.0,122.0,2.0,2.0,0.0,0.0,0.0,0.0,7.5,7.5,4.0,4.0,0.0,0.0,35.0,35.0,4.0,4.0,209.0,209.0,0.0,0.0,0.0,0.0,0.0,2.92,8.75,0.0,0.0,0.0,8.75,0.0,8.75,0.0,8.75,1.88,1.0,2.0,17709.69645390071,20112021.9964539,2011.186524822695,72.68675177304964,207.25886524822695,9.586666666666668,52200.00992907801,72.80425531914894,207.31560283687944,32.67433333333334,4.5200463320463315,35.373366013071895,15.492,4.243622902270483,120.43132328308208,6.9371444695259585,11.728636363636362,19.495495495495497
44,Austin Carr,2018,2.0,14.0,9.0,97.0,131.0,22.0,2.0,0.0,30.7,0.024,0.02,0.143,6.93,10.78,0.0,0.0,9.0,2.0,0.22,97.0,10.78,9.0,0.0,10.78,0.0,10.78,3.41,0.0,0.303,300,0.009,2017.0,8.0,48.0,263.0,73.0,195.0,25,13,3,0,0.812,1.0,14.0,14.0,9.0,9.0,97.0,97.0,131.0,131.0,22.0,22.0,2.0,2.0,0.0,0.0,30.700000762939453,30.700000762939453,9.0,9.0,2.0,2.0,97.0,97.0,9.0,9.0,300.0,300.0,0.0,0.0,0.0,0.0,0.143,6.93,10.78,0.0,0.0,0.22,10.78,0.0,10.78,0.0,10.78,3.41,5.0,8.0,17709.69645390071,20112021.9964539,2011.186524822695,72.68675177304964,207.25886524822695,9.586666666666668,52200.00992907801,72.80425531914894,207.31560283687944,32.67433333333334,4.5200463320463315,35.373366013071895,15.492,4.243622902270483,120.43132328308208,6.9371444695259585,11.728636363636362,19.495495495495497
45,Austin Collie,2012,2.0,1.0,1.0,6.0,4.0,2.0,0.0,0.0,1.6,0.001,0.002,0.0,6.0,6.0,0.0,0.0,1.0,0.0,0.0,6.0,6.0,1.0,0.0,6.0,0.0,6.0,1.6,0.0,0.18,195,0.001,2009.0,4.0,27.0,127.0,72.0,204.0,27,11,5,0,0.688,3.0,1.0,0.3333333333333333,1.0,0.3333333333333333,6.0,2.0,4.0,1.3333333333333333,2.0,0.6666666666666666,0.0,0.0,0.0,0.0,1.600000023841858,0.5333333412806193,1.0,0.3333333333333333,0.0,0.0,6.0,2.0,1.0,0.3333333333333333,195.0,65.0,0.0,0.0,0.0,0.0,0.0,6.0,6.0,0.0,0.0,0.0,6.0,0.0,6.0,0.0,6.0,1.6,3.0,3.0,16824.0,20090127.0,2009.0,72.88,200.0,9.586666666666668,84602.0,72.0,204.0,32.67433333333334,4.56,34.0,17.0,4.24,120.0,6.78,11.728636363636362,19.495495495495497
46,Austin Mack,2020,2.0,11.0,7.0,91.0,91.0,37.0,0.0,0.0,16.1,0.018,0.02,0.0,8.27,13.0,0.0,0.0,7.0,0.0,0.0,91.0,13.0,5.0,0.0,18.2,0.0,18.2,3.22,0.0,0.279,265,0.011,2020.0,8.0,48.0,263.0,74.0,215.0,23,6,10,0,0.375,0.0,11.0,11.0,7.0,7.0,91.0,91.0,91.0,91.0,37.0,37.0,0.0,0.0,0.0,0.0,16.100000381469727,16.100000381469727,7.0,7.0,0.0,0.0,91.0,91.0,5.0,5.0,265.0,265.0,0.0,0.0,0.0,0.0,0.0,8.27,13.0,0.0,0.0,0.0,13.0,0.0,18.2,0.0,18.2,3.22,4.0,9.0,17709.69645390071,20112021.9964539,2011.186524822695,72.68675177304964,207.25886524822695,9.586666666666668,52200.00992907801,72.80425531914894,207.31560283687944,32.67433333333334,4.5200463320463315,35.373366013071895,15.492,4.243622902270483,120.43132328308208,6.9371444695259585,11.728636363636362,19.495495495495497
47,Austin Trammell,2022,3.0,4.0,2.0,13.0,30.0,0.0,0.0,0.0,3.3,0.007,0.007,0.0,3.25,6.5,0.0,0.0,2.0,0.0,0.0,13.0,6.5,2.0,0.0,6.5,0.0,6.5,1.65,0.0,0.158,155,0.002,2021.0,8.0,48.0,263.0,70.0,185.0,24,5,12,0,0.294,1.0,4.0,4.0,2.0,2.0,13.0,13.0,30.0,30.0,0.0,0.0,0.0,0.0,0.0,0.0,3.299999952316284,3.299999952316284,2.0,2.0,0.0,0.0,13.0,13.0,2.0,2.0,155.0,155.0,0.0,0.0,0.0,0.0,0.0,3.25,6.5,0.0,0.0,0.0,6.5,0.0,6.5,0.0,6.5,1.65,1.0,23.0,17709.69645390071,20112021.9964539,2011.186524822695,72.68675177304964,207.25886524822695,9.586666666666668,52200.00992907801,72.80425531914894,207.31560283687944,32.67433333333334,4.5200463320463315,35.373366013071895,15.492,4.243622902270483,120.43132328308208,6.9371444695259585,11.728636363636362,19.495495495495497
48,Ben Obomanu,2012,2.0,9.0,4.0,58.0,132.0,21.0,0.0,0.0,10.9,0.032,0.021,0.0,6.44,14.5,0.0,11.0,5.0,0.0,0.0,69.0,13.8,5.0,0.0,11.6,2.2,13.8,2.18,0.0,0.296,284,0.008,2006.0,7.0,41.0,249.0,73.0,204.0,29,11,5,0,0.688,6.0,9.0,1.5,4.0,0.6666666666666666,58.0,9.666666666666666,132.0,22.0,21.0,3.5,0.0,0.0,0.0,0.0,10.899999618530272,1.816666603088379,5.0,0.8333333333333333,0.0,0.0,69.0,11.5,5.0,0.8333333333333334,284.0,47.333333333333336,0.0,0.0,0.0,0.0,0.0,6.44,14.5,0.0,11.0,0.0,13.8,0.0,11.6,2.2,13.8,2.18,2.0,2.0,16139.0,20060249.0,2006.0,73.0,205.0,9.586666666666668,36849.0,73.0,204.0,32.67433333333334,4.45,38.0,15.492,4.21,116.0,7.18,11.728636363636362,19.495495495495497
49,Ben Skowronek,2021,2.0,20.0,11.0,133.0,210.0,53.0,0.0,0.0,24.3,0.046,0.034,0.0,6.65,12.09,0.0,0.0,11.0,0.0,0.0,133.0,12.09,7.0,0.0,19.0,0.0,19.0,3.47,0.0,0.243,253,0.012,2021.0,7.0,21.0,249.0,75.0,224.0,24,12,5,0,0.706,0.0,20.0,20.0,11.0,11.0,133.0,133.0,210.0,210.0,53.0,53.0,0.0,0.0,0.0,0.0,24.299999237060547,24.299999237060547,11.0,11.0,0.0,0.0,133.0,133.0,7.0,7.0,253.0,253.0,0.0,0.0,0.0,0.0,0.0,6.65,12.09,0.0,0.0,0.0,12.09,0.0,19.0,0.0,19.0,3.47,3.0,3.0,17709.69645390071,20112021.9964539,2011.186524822695,72.68675177304964,207.25886524822695,9.586666666666668,52200.00992907801,72.80425531914894,207.31560283687944,32.67433333333334,4.5200463320463315,35.373366013071895,15.492,4.243622902270483,120.43132328308208,6.9371444695259585,11.728636363636362,19.495495495495497
50,Bennie Fowler,2015,3.0,25.0,16.0,203.0,203.0,97.0,0.0,0.0,36.3,0.042,0.041,0.0,8.12,12.69,0.0,0.0,16.0,0.0,0.0,203.0,12.69,13.0,0.0,15.62,0.0,15.62,2.79,0.0,0.274,286,0.02,2014.0,8.0,48.0,263.0,73.0,212.0,24,12,4,0,0.75,1.0,25.0,25.0,16.0,16.0,203.0,203.0,203.0,203.0,97.0,97.0,0.0,0.0,0.0,0.0,36.29999923706055,36.29999923706055,16.0,16.0,0.0,0.0,203.0,203.0,13.0,13.0,286.0,286.0,0.0,0.0,0.0,0.0,0.0,8.12,12.69,0.0,0.0,0.0,12.69,0.0,15.62,0.0,15.62,2.79,6.0,6.0,18358.0,20140531.0,2014.0,73.25,217.0,9.586666666666668,48824.0,73.0,212.0,32.67433333333334,4.52,36.0,15.492,4.18,125.0,7.06,11.728636363636362,19.495495495495497
51,Bernard Reedy,2017,2.0,2.0,2.0,21.0,13.0,8.0,0.0,0.0,5.8,0.002,0.003,0.0,10.5,10.5,0.0,5.67,5.0,0.0,0.0,38.0,7.6,4.0,0.0,5.25,4.25,9.5,1.45,0.0,0.045,46,0.004,2014.0,8.0,48.0,263.0,69.0,175.0,26,5,11,0,0.312,3.0,2.0,0.6666666666666666,2.0,0.6666666666666666,21.0,7.0,13.0,4.333333333333333,8.0,2.6666666666666665,0.0,0.0,0.0,0.0,5.800000190734863,1.933333396911621,5.0,1.6666666666666663,0.0,0.0,38.0,12.666666666666668,4.0,1.3333333333333333,46.0,15.333333333333334,0.0,0.0,0.0,0.0,0.0,10.5,10.5,0.0,5.67,0.0,7.6,0.0,5.25,4.25,9.5,1.45,4.0,19.0,17709.69645390071,20112021.9964539,2011.186524822695,72.68675177304964,207.25886524822695,9.586666666666668,52200.00992907801,72.80425531914894,207.31560283687944,32.67433333333334,4.5200463320463315,35.373366013071895,15.492,4.243622902270483,120.43132328308208,6.9371444695259585,11.728636363636362,19.495495495495497
52,Bo Melton,2023,2.0,24.0,16.0,218.0,267.0,37.0,1.0,0.0,45.9,0.059,0.04,0.042,9.08,13.62,0.0,7.0,19.0,1.0,0.05,239.0,12.58,4.0,0.0,54.5,5.25,59.75,11.48,0.0,0.426,443,0.024,2022.0,7.0,8.0,229.0,71.0,189.0,24,9,8,0,0.529,1.0,24.0,24.0,16.0,16.0,218.0,218.0,267.0,267.0,37.0,37.0,1.0,1.0,0.0,0.0,45.900001525878906,45.900001525878906,19.0,19.0,1.0,1.0,239.0,239.0,4.0,4.0,443.0,443.0,0.0,0.0,0.0,0.0,0.042,9.08,13.62,0.0,7.0,0.05,12.58,0.0,54.5,5.25,59.75,11.48,1.0,2.0,17709.69645390071,20112021.9964539,2011.186524822695,72.68675177304964,207.25886524822695,9.586666666666668,52200.00992907801,72.80425531914894,207.31560283687944,32.67433333333334,4.5200463320463315,35.373366013071895,15.492,4.243622902270483,120.43132328308208,6.9371444695259585,11.728636363636362,19.495495495495497
53,Bobo Wilson,2017,3.0,1.0,1.0,18.0,18.0,0.0,1.0,0.0,9.6,0.003,0.002,1.0,18.0,18.0,0.0,2.67,4.0,1.0,0.25,26.0,6.5,3.0,0.0,6.0,2.67,8.67,3.2,0.0,0.083,85,0.002,2017.0,8.0,48.0,263.0,69.0,186.0,22,5,11,0,0.312,0.0,1.0,1.0,1.0,1.0,18.0,18.0,18.0,18.0,0.0,0.0,1.0,1.0,0.0,0.0,9.600000381469728,9.600000381469728,4.0,4.0,1.0,1.0,26.0,26.0,3.0,3.0,85.0,85.0,0.0,0.0,0.0,0.0,1.0,18.0,18.0,0.0,2.67,0.25,6.5,0.0,6.0,2.67,8.67,3.2,2.0,2.0,17709.69645390071,20112021.9964539,2011.186524822695,72.68675177304964,207.25886524822695,9.586666666666668,52200.00992907801,72.80425531914894,207.31560283687944,32.67433333333334,4.5200463320463315,35.373366013071895,15.492,4.243622902270483,120.43132328308208,6.9371444695259585,11.728636363636362,19.495495495495497
54,Brad Smith,2012,3.0,22.0,14.0,152.0,192.0,44.0,2.0,0.0,56.8,0.048,0.041,0.091,6.91,10.86,0.071,8.29,29.0,3.0,0.1,268.0,9.24,13.0,0.0,11.69,8.92,20.62,4.37,-414.58,0.323,313,0.03,2006.0,4.0,6.0,103.0,74.0,213.0,29,6,10,0,0.375,6.0,22.0,3.6666666666666665,14.0,2.333333333333333,152.0,25.33333333333333,192.0,32.0,44.0,7.333333333333333,2.0,0.3333333333333333,0.0,0.0,56.79999923706055,9.466666539510092,29.0,4.833333333333334,3.0,0.5,268.0,44.66666666666666,13.0,2.1666666666666665,313.0,52.16666666666666,0.0,1.0,0.0,0.0,0.091,6.91,10.86,0.071,8.29,0.1,9.24,0.0,11.69,8.92,20.62,4.37,8.0,8.0,16181.0,20060103.0,2006.0,74.13,213.0,9.586666666666668,65211.0,74.0,213.0,32.67433333333334,4.51,39.5,15.492,4.33,128.0,7.0,11.728636363636362,24.0
55,Bradley Marquez,2016,2.0,7.0,3.0,37.0,49.0,22.0,0.0,0.0,6.9,0.011,0.012,0.0,5.29,12.33,0.0,2.0,4.0,0.0,0.0,39.0,9.75,7.0,0.0,5.29,0.29,5.57,0.99,0.0,0.116,110,0.005,2015.0,8.0,48.0,263.0,70.0,205.0,24,4,12,0,0.25,1.0,7.0,7.0,3.0,3.0,37.0,37.0,49.0,49.0,22.0,22.0,0.0,0.0,0.0,0.0,6.900000095367432,6.900000095367432,4.0,4.0,0.0,0.0,39.0,39.0,7.0,7.0,110.0,110.0,0.0,0.0,0.0,0.0,0.0,5.29,12.33,0.0,2.0,0.0,9.75,0.0,5.29,0.29,5.57,0.99,1.0,2.0,17709.69645390071,20112021.9964539,2011.186524822695,72.68675177304964,207.25886524822695,9.586666666666668,52200.00992907801,72.80425531914894,207.31560283687944,32.67433333333334,4.5200463320463315,35.373366013071895,15.492,4.243622902270483,120.43132328308208,6.9371444695259585,11.728636363636362,19.495495495495497
56,Bralon Addison,2016,3.0,1.0,1.0,11.0,3.0,8.0,0.0,0.0,2.5,0.001,0.002,0.0,11.0,11.0,0.0,4.0,2.0,0.0,0.0,15.0,7.5,1.0,0.0,11.0,4.0,15.0,2.5,0.0,0.02,19,0.002,2016.0,8.0,48.0,263.0,69.0,197.0,23,3,13,0,0.188,0.0,1.0,1.0,1.0,1.0,11.0,11.0,3.0,3.0,8.0,8.0,0.0,0.0,0.0,0.0,2.5,2.5,2.0,2.0,0.0,0.0,15.0,15.0,1.0,1.0,19.0,19.0,0.0,0.0,0.0,0.0,0.0,11.0,11.0,0.0,4.0,0.0,7.5,0.0,11.0,4.0,15.0,2.5,2.0,2.0,19315.0,20160515.0,2016.0,69.25,197.0,9.586666666666668,97403.0,70.0,190.0,32.67433333333334,4.66,34.5,13.0,4.14,116.0,6.95,11.728636363636362,19.495495495495497
57,Brandin Cooks,2014,2.0,69.0,53.0,550.0,566.0,170.0,3.0,0.0,139.3,0.103,0.099,0.043,7.97,10.38,0.143,10.43,60.0,4.0,0.07,623.0,10.38,10.0,0.0,55.0,7.3,62.3,13.93,0.0,0.726,784,0.054,2014.0,1.0,20.0,20.0,70.0,189.0,21,7,9,0,0.438,0.0,69.0,69.0,53.0,53.0,550.0,550.0,566.0,566.0,170.0,170.0,3.0,3.0,0.0,0.0,139.3000030517578,139.3000030517578,60.0,60.0,4.0,4.0,623.0,623.0,10.0,10.0,784.0,784.0,0.0,0.0,0.0,0.0,0.043,7.97,10.38,0.143,10.43,0.07,10.38,0.0,55.0,7.3,62.3,13.93,2.0,2.0,18320.0,20140020.0,2014.0,69.75,189.0,9.586666666666668,97331.0,70.0,189.0,32.67433333333334,4.33,36.0,16.0,3.81,120.0,6.76,11.728636363636362,19.495495495495497
58,Brandon Aiyuk,2020,2.0,96.0,60.0,751.0,902.0,289.0,5.0,0.0,184.8,0.236,0.201,0.052,7.82,12.52,0.333,12.83,66.0,7.0,0.11,828.0,12.55,12.0,0.0,62.58,6.42,69.0,15.4,0.0,0.868,902,0.081,2020.0,1.0,25.0,25.0,72.0,200.0,22,6,10,0,0.375,0.0,96.0,96.0,60.0,60.0,751.0,751.0,902.0,902.0,289.0,289.0,5.0,5.0,0.0,0.0,184.8000030517578,184.8000030517578,66.0,66.0,7.0,7.0,828.0,828.0,12.0,12.0,902.0,902.0,0.0,0.0,0.0,0.0,0.052,7.82,12.52,0.333,12.83,0.11,12.55,0.0,62.58,6.42,69.0,15.4,3.0,3.0,17709.69645390071,20112021.9964539,2011.186524822695,72.68675177304964,207.25886524822695,9.586666666666668,52200.00992907801,72.80425531914894,207.31560283687944,32.67433333333334,4.5200463320463315,35.373366013071895,15.492,4.243622902270483,120.43132328308208,6.9371444695259585,11.728636363636362,19.495495495495497
59,Brandon Coleman,2015,2.0,49.0,30.0,454.0,680.0,120.0,2.0,0.0,87.4,0.124,0.071,0.041,9.27,15.13,0.0,0.0,30.0,2.0,0.07,454.0,15.13,16.0,0.0,28.38,0.0,28.38,5.46,0.0,0.371,401,0.039,2014.0,8.0,48.0,263.0,78.0,225.0,23,7,9,0,0.438,1.0,49.0,49.0,30.0,30.0,454.0,454.0,680.0,680.0,120.0,120.0,2.0,2.0,0.0,0.0,87.4000015258789,87.4000015258789,30.0,30.0,2.0,2.0,454.0,454.0,16.0,16.0,401.0,401.0,0.0,0.0,0.0,0.0,0.041,9.27,15.13,0.0,0.0,0.07,15.13,0.0,28.38,0.0,28.38,5.46,2.0,31.0,18318.0,20140658.0,2014.0,78.0,225.0,9.586666666666668,7102.0,78.0,225.0,32.67433333333334,4.56,32.5,21.0,4.51,120.43132328308208,7.33,11.728636363636362,19.495495495495497
60,Brandon Gibson,2013,2.0,43.0,30.0,326.0,373.0,113.0,4.0,0.0,86.6,0.086,0.08,0.093,7.58,10.87,0.0,0.0,30.0,4.0,0.13,326.0,10.87,7.0,0.0,46.57,0.0,46.57,12.37,0.0,0.58,573,0.036,2009.0,6.0,21.0,194.0,72.0,210.0,26,8,8,0,0.5,4.0,43.0,10.75,30.0,7.5,326.0,81.5,373.0,93.25,113.0,28.25,4.0,1.0,0.0,0.0,86.5999984741211,21.649999618530277,30.0,7.5,4.0,1.0,326.0,81.5,7.0,1.75,573.0,143.25,0.0,0.0,0.0,0.0,0.093,7.58,10.87,0.0,0.0,0.13,10.87,0.0,46.57,0.0,46.57,12.37,5.0,7.0,17709.69645390071,20112021.9964539,2011.186524822695,72.68675177304964,207.25886524822695,9.586666666666668,52200.00992907801,72.80425531914894,207.31560283687944,32.67433333333334,4.5200463320463315,35.373366013071895,15.492,4.243622902270483,120.43132328308208,6.9371444695259585,11.728636363636362,19.495495495495497
61,Brandon Johnson,2022,2.0,14.0,6.0,42.0,180.0,13.0,2.0,0.0,22.2,0.037,0.023,0.143,3.0,7.0,0.0,0.0,6.0,2.0,0.33,42.0,7.0,4.0,0.0,10.5,0.0,10.5,5.55,0.0,0.45,481,0.004,2022.0,8.0,48.0,263.0,74.0,195.0,24,5,12,0,0.294,0.0,14.0,14.0,6.0,6.0,42.0,42.0,180.0,180.0,13.0,13.0,2.0,2.0,0.0,0.0,22.200000762939453,22.200000762939453,6.0,6.0,2.0,2.0,42.0,42.0,4.0,4.0,481.0,481.0,0.0,0.0,0.0,0.0,0.143,3.0,7.0,0.0,0.0,0.33,7.0,0.0,10.5,0.0,10.5,5.55,7.0,14.0,16074.0,20060142.0,2006.0,76.88,228.0,9.586666666666668,40292.0,77.0,245.0,32.67433333333334,4.52,37.0,11.0,4.34,118.0,7.17,11.728636363636362,19.495495495495497
62,Brandon LaFell,2012,2.0,76.0,44.0,677.0,765.0,312.0,5.0,0.0,145.2,0.168,0.145,0.066,8.91,15.39,0.0,11.67,47.0,5.0,0.11,712.0,15.15,13.0,0.0,52.08,2.69,54.77,11.17,0.0,0.843,822,0.073,2010.0,3.0,14.0,78.0,75.0,210.0,26,7,9,0,0.438,2.0,76.0,38.0,44.0,22.0,677.0,338.5,765.0,382.5,312.0,156.0,5.0,2.5,0.0,0.0,145.1999969482422,72.5999984741211,47.0,23.5,5.0,2.5,712.0,356.0,13.0,6.5,822.0,411.0,0.0,0.0,0.0,0.0,0.066,8.91,15.39,0.0,11.67,0.11,15.15,0.0,52.08,2.69,54.77,11.17,5.0,5.0,17197.0,20100078.0,2010.0,74.5,211.0,9.586666666666668,70803.0,75.0,210.0,32.67433333333334,4.58,36.0,15.492,4.23,115.0,6.81,11.728636363636362,19.495495495495497
63,Brandon Lloyd,2012,1.0,130.0,74.0,911.0,1740.0,168.0,4.0,0.0,189.1,0.315,0.195,0.031,7.01,12.31,0.0,0.0,74.0,4.0,0.05,911.0,12.31,16.0,0.0,56.94,0.0,56.94,11.82,0.0,0.832,982,0.078,2003.0,4.0,27.0,124.0,72.0,200.0,31,12,4,0,0.75,9.0,130.0,14.444444444444445,74.0,8.222222222222221,911.0,101.22222222222224,1740.0,193.33333333333331,168.0,18.666666666666668,4.0,0.4444444444444444,0.0,0.0,189.1000061035156,21.011111789279514,74.0,8.222222222222221,4.0,0.4444444444444444,911.0,101.22222222222224,16.0,1.7777777777777777,982.0,109.11111111111111,0.0,0.0,0.0,0.0,0.031,7.01,12.31,0.0,0.0,0.05,12.31,0.0,56.94,0.0,56.94,11.82,10.0,10.0,15269.0,20030124.0,2003.0,72.1,184.0,9.586666666666668,61801.0,72.0,200.0,32.67433333333334,4.61,36.0,15.492,4.243622902270483,120.43132328308208,6.9371444695259585,11.728636363636362,19.495495495495497
64,Brandon Marshall,2012,1.0,195.0,118.0,1508.0,2411.0,347.0,12.0,0.0,340.6,0.499,0.368,0.062,7.73,12.78,0.0,-2.0,119.0,12.0,0.1,1506.0,12.66,16.0,0.0,94.25,-0.12,94.12,21.29,0.0,0.928,911,0.182,2006.0,4.0,22.0,119.0,77.0,232.0,28,10,6,0,0.625,6.0,195.0,32.5,118.0,19.666666666666668,1508.0,251.33333333333331,2411.0,401.8333333333333,347.0,57.833333333333336,12.0,2.0,0.0,0.0,340.6000061035156,56.76666768391927,119.0,19.833333333333336,12.0,2.0,1506.0,251.0,16.0,2.6666666666666665,911.0,151.83333333333334,0.0,0.0,0.0,0.0,0.062,7.73,12.78,0.0,-2.0,0.1,12.66,0.0,94.25,-0.12,94.12,21.29,2.0,2.0,16102.0,20060119.0,2006.0,76.5,229.0,9.586666666666668,32816.0,77.0,232.0,32.67433333333334,4.54,37.0,28.0,4.09,120.0,7.05,11.728636363636362,19.495495495495497
65,Brandon Powell,2018,2.0,17.0,11.0,129.0,57.0,115.0,0.0,0.0,24.3,0.009,0.022,0.0,7.59,11.73,0.0,4.0,12.0,0.0,0.0,133.0,11.08,4.0,0.0,32.25,1.0,33.25,6.07,0.0,0.276,279,0.015,2018.0,8.0,48.0,263.0,68.0,181.0,22,6,10,0,0.375,0.0,17.0,17.0,11.0,11.0,129.0,129.0,57.0,57.0,115.0,115.0,0.0,0.0,0.0,0.0,24.299999237060547,24.299999237060547,12.0,12.0,0.0,0.0,133.0,133.0,4.0,4.0,279.0,279.0,0.0,0.0,0.0,0.0,0.0,7.59,11.73,0.0,4.0,0.0,11.08,0.0,32.25,1.0,33.25,6.07,2.0,2.0,17709.69645390071,20112021.9964539,2011.186524822695,72.68675177304964,207.25886524822695,9.586666666666668,52200.00992907801,72.80425531914894,207.31560283687944,32.67433333333334,4.5200463320463315,35.373366013071895,15.492,4.243622902270483,120.43132328308208,6.9371444695259585,11.728636363636362,19.495495495495497
66,Brandon Stokley,2012,2.0,59.0,45.0,544.0,589.0,148.0,5.0,0.0,129.4,0.121,0.097,0.085,9.22,12.09,0.0,0.0,45.0,5.0,0.11,544.0,12.09,14.0,0.0,38.86,0.0,38.86,9.24,0.0,0.563,599,0.049,1999.0,4.0,10.0,105.0,72.0,194.0,36,13,3,0,0.812,13.0,59.0,4.538461538461538,45.0,3.4615384615384617,544.0,41.84615384615385,589.0,45.30769230769231,148.0,11.384615384615383,5.0,0.3846153846153846,0.0,0.0,129.39999389648438,9.953845684344952,45.0,3.4615384615384617,5.0,0.3846153846153846,544.0,41.84615384615385,14.0,1.0769230769230769,599.0,46.07692307692308,0.0,0.0,0.0,0.0,0.085,9.22,12.09,0.0,0.0,0.11,12.09,0.0,38.86,0.0,38.86,9.24,5.0,5.0,14290.0,19990105.0,1999.0,73.0,197.0,9.586666666666668,70504.0,72.0,194.0,32.67433333333334,4.49,35.5,15.492,4.01,118.0,7.04,11.728636363636362,19.495495495495497
67,Brandon Tate,2012,1.0,25.0,13.0,211.0,309.0,64.0,3.0,0.0,52.1,0.066,0.043,0.12,8.44,16.23,0.0,0.0,14.0,3.0,0.21,211.0,15.07,12.0,0.0,17.58,0.0,17.58,4.34,0.0,0.271,269,0.023,2009.0,3.0,19.0,83.0,73.0,195.0,25,10,6,0,0.625,3.0,25.0,8.333333333333334,13.0,4.333333333333333,211.0,70.33333333333333,309.0,103.0,64.0,21.33333333333333,3.0,1.0,0.0,0.0,52.09999847412109,17.366666158040363,14.0,4.666666666666666,3.0,1.0,211.0,70.33333333333333,12.0,4.0,269.0,89.66666666666667,0.0,0.0,0.0,0.0,0.12,8.44,16.23,0.0,0.0,0.21,15.07,0.0,17.58,0.0,17.58,4.34,9.0,14.0,17709.69645390071,20112021.9964539,2011.186524822695,72.68675177304964,207.25886524822695,9.586666666666668,52200.00992907801,72.80425531914894,207.31560283687944,32.67433333333334,4.5200463320463315,35.373366013071895,15.492,4.243622902270483,120.43132328308208,6.9371444695259585,11.728636363636362,19.495495495495497
68,Brandon Zylstra,2018,2.0,2.0,1.0,23.0,43.0,8.0,0.0,0.0,3.3,0.013,0.004,0.0,11.5,23.0,0.0,0.0,1.0,0.0,0.0,23.0,23.0,2.0,0.0,11.5,0.0,11.5,1.65,0.0,0.028,27,0.002,2018.0,8.0,48.0,263.0,74.0,215.0,25,8,8,1,0.471,0.0,2.0,2.0,1.0,1.0,23.0,23.0,43.0,43.0,8.0,8.0,0.0,0.0,0.0,0.0,3.299999952316284,3.299999952316284,1.0,1.0,0.0,0.0,23.0,23.0,2.0,2.0,27.0,27.0,0.0,0.0,0.0,0.0,0.0,11.5,23.0,0.0,0.0,0.0,23.0,0.0,11.5,0.0,11.5,1.65,1.0,1.0,17709.69645390071,20112021.9964539,2011.186524822695,72.68675177304964,207.25886524822695,9.586666666666668,52200.00992907801,72.80425531914894,207.31560283687944,32.67433333333334,4.5200463320463315,35.373366013071895,15.492,4.243622902270483,120.43132328308208,6.9371444695259585,11.728636363636362,19.495495495495497
69,Braxton Berrios,2019,2.0,13.0,6.0,115.0,107.0,87.0,0.0,0.0,17.5,0.024,0.024,0.0,8.85,19.17,0.0,0.0,6.0,0.0,0.0,115.0,19.17,6.0,0.0,19.17,0.0,19.17,2.92,0.0,0.133,125,0.015,2018.0,6.0,36.0,210.0,69.0,185.0,24,7,9,0,0.438,1.0,13.0,13.0,6.0,6.0,115.0,115.0,107.0,107.0,87.0,87.0,0.0,0.0,0.0,0.0,17.5,17.5,6.0,6.0,0.0,0.0,115.0,115.0,6.0,6.0,125.0,125.0,0.0,0.0,0.0,0.0,0.0,8.85,19.17,0.0,0.0,0.0,19.17,0.0,19.17,0.0,19.17,2.92,4.0,4.0,19976.0,20180210.0,2018.0,69.0,184.0,9.586666666666668,33124.0,69.0,183.0,32.67433333333334,4.5200463320463315,35.373366013071895,11.0,4.243622902270483,120.43132328308208,6.9371444695259585,11.728636363636362,19.495495495495497
70,Braxton Miller,2016,2.0,28.0,15.0,99.0,202.0,52.0,1.0,0.0,30.9,0.046,0.048,0.036,3.54,6.6,0.0,0.0,18.0,1.0,0.06,99.0,5.5,9.0,0.0,11.0,0.0,11.0,3.43,0.0,0.542,571,0.012,2016.0,3.0,22.0,85.0,74.0,215.0,24,9,7,0,0.562,0.0,28.0,28.0,15.0,15.0,99.0,99.0,202.0,202.0,52.0,52.0,1.0,1.0,0.0,0.0,30.899999618530277,30.899999618530277,18.0,18.0,1.0,1.0,99.0,99.0,9.0,9.0,571.0,571.0,0.0,0.0,0.0,0.0,0.036,3.54,6.6,0.0,0.0,0.06,5.5,0.0,11.0,0.0,11.0,3.43,3.0,3.0,19509.0,20160085.0,2016.0,73.38,201.0,9.586666666666668,43210.0,74.0,215.0,32.67433333333334,4.5,35.0,17.0,4.07,123.0,6.65,11.728636363636362,19.495495495495497
71,Braylon Edwards,2012,2.0,35.0,18.0,199.0,486.0,33.0,1.0,0.0,43.9,0.12,0.08,0.029,5.69,11.06,0.0,0.0,18.0,1.0,0.06,199.0,11.06,5.0,0.0,39.8,0.0,39.8,8.78,0.0,0.221,212,0.022,2005.0,1.0,3.0,3.0,75.0,214.0,29,11,5,0,0.688,7.0,35.0,5.0,18.0,2.571428571428572,199.0,28.428571428571427,486.0,69.42857142857143,33.0,4.714285714285714,1.0,0.1428571428571428,0.0,0.0,43.900001525878906,6.271428789411273,18.0,2.571428571428572,1.0,0.1428571428571428,199.0,28.428571428571427,5.0,0.7142857142857143,212.0,30.285714285714285,0.0,0.0,0.0,0.0,0.029,5.69,11.06,0.0,0.0,0.06,11.06,0.0,39.8,0.0,39.8,8.78,5.0,5.0,15753.0,20050003.0,2005.0,74.88,211.0,9.586666666666668,48109.0,75.0,214.0,32.67433333333334,4.45,35.373366013071895,22.0,4.243622902270483,120.43132328308208,6.9371444695259585,11.728636363636362,19.495495495495497
72,Braylon Sanders,2022,3.0,3.0,2.0,17.0,42.0,3.0,0.0,1.0,0.7,0.01,0.006,0.0,5.67,8.5,0.0,0.0,2.0,0.0,0.0,17.0,8.5,2.0,0.0,8.5,0.0,8.5,0.35,0.0,0.19,189,0.002,2022.0,8.0,48.0,263.0,73.0,190.0,23,9,8,0,0.529,0.0,3.0,3.0,2.0,2.0,17.0,17.0,42.0,42.0,3.0,3.0,0.0,0.0,1.0,1.0,0.699999988079071,0.699999988079071,2.0,2.0,0.0,0.0,17.0,17.0,2.0,2.0,189.0,189.0,0.0,0.0,0.0,0.0,0.0,5.67,8.5,0.0,0.0,0.0,8.5,0.0,8.5,0.0,8.5,0.35,5.0,5.0,17709.69645390071,20112021.9964539,2011.186524822695,72.68675177304964,207.25886524822695,9.586666666666668,52200.00992907801,72.80425531914894,207.31560283687944,32.67433333333334,4.5200463320463315,35.373366013071895,15.492,4.243622902270483,120.43132328308208,6.9371444695259585,11.728636363636362,19.495495495495497
73,Breshad Perriman,2016,2.0,66.0,33.0,499.0,944.0,166.0,3.0,0.0,101.1,0.172,0.11,0.045,7.56,15.12,0.0,2.0,34.0,3.0,0.09,501.0,14.74,15.0,0.0,33.27,0.13,33.4,6.74,0.0,0.426,453,0.05,2015.0,1.0,26.0,26.0,74.0,215.0,23,8,8,0,0.5,1.0,66.0,66.0,33.0,33.0,499.0,499.0,944.0,944.0,166.0,166.0,3.0,3.0,0.0,0.0,101.0999984741211,101.0999984741211,34.0,34.0,3.0,3.0,501.0,501.0,15.0,15.0,453.0,453.0,0.0,0.0,0.0,0.0,0.045,7.56,15.12,0.0,2.0,0.09,14.74,0.0,33.27,0.13,33.4,6.74,1.0,10.0,18803.0,20150026.0,2015.0,74.0,212.0,9.586666666666668,32816.0,74.0,215.0,32.67433333333334,4.5200463320463315,35.373366013071895,15.492,4.243622902270483,120.43132328308208,6.9371444695259585,11.728636363636362,19.495495495495497
74,Brian Hartline,2012,1.0,131.0,74.0,1083.0,1661.0,240.0,1.0,1.0,185.3,0.383,0.243,0.008,8.27,14.64,0.0,0.0,74.0,1.0,0.01,1083.0,14.64,15.0,0.0,72.2,0.0,72.2,12.35,0.0,0.865,831,0.128,2009.0,4.0,8.0,108.0,74.0,200.0,26,7,9,0,0.438,3.0,131.0,43.66666666666666,74.0,24.666666666666668,1083.0,361.0,1661.0,553.6666666666666,240.0,80.0,1.0,0.3333333333333333,1.0,0.3333333333333333,185.3000030517578,61.76666768391927,74.0,24.666666666666668,1.0,0.3333333333333333,1083.0,361.0,15.0,5.0,831.0,277.0,0.0,0.0,0.0,0.0,0.008,8.27,14.64,0.0,0.0,0.01,14.64,0.0,72.2,0.0,72.2,12.35,8.0,8.0,16882.0,20090108.0,2009.0,73.63,195.0,9.586666666666668,43210.0,74.0,200.0,32.67433333333334,4.52,34.5,15.492,4.12,120.0,6.65,11.728636363636362,19.495495495495497
75,Brian Quick,2016,2.0,77.0,41.0,564.0,895.0,177.0,3.0,0.0,115.4,0.196,0.131,0.039,7.32,13.76,0.0,0.0,41.0,3.0,0.07,564.0,13.76,16.0,0.0,35.25,0.0,35.25,7.21,0.0,0.691,656,0.075,2012.0,2.0,1.0,33.0,75.0,215.0,27,4,12,0,0.25,4.0,77.0,19.25,41.0,10.25,564.0,141.0,895.0,223.75,177.0,44.25,3.0,0.75,0.0,0.0,115.4000015258789,28.850000381469727,41.0,10.25,3.0,0.75,564.0,141.0,16.0,4.0,656.0,164.0,0.0,0.0,0.0,0.0,0.039,7.32,13.76,0.0,0.0,0.07,13.76,0.0,35.25,0.0,35.25,7.21,1.0,1.0,17892.0,20120033.0,2012.0,75.5,220.0,9.586666666666668,28608.0,75.0,218.0,32.67433333333334,4.5,34.0,15.0,4.23,119.0,7.1,11.728636363636362,19.495495495495497
76,Brice Butler,2015,3.0,26.0,12.0,258.0,307.0,96.0,0.0,0.0,37.8,0.053,0.037,0.0,9.92,21.5,0.0,0.0,12.0,0.0,0.0,258.0,21.5,5.0,0.0,51.6,0.0,51.6,7.56,0.0,0.577,553,0.029,2013.0,7.0,3.0,209.0,75.0,211.0,25,4,12,0,0.25,2.0,26.0,13.0,12.0,6.0,258.0,129.0,307.0,153.5,96.0,48.0,0.0,0.0,0.0,0.0,37.79999923706055,18.899999618530277,12.0,6.0,0.0,0.0,258.0,129.0,5.0,2.5,553.0,276.5,0.0,0.0,0.0,0.0,0.0,9.92,21.5,0.0,0.0,0.0,21.5,0.0,51.6,0.0,51.6,7.56,7.0,7.0,17709.69645390071,20112021.9964539,2011.186524822695,72.68675177304964,207.25886524822695,9.586666666666668,52200.00992907801,72.80425531914894,207.31560283687944,32.67433333333334,4.5200463320463315,35.373366013071895,15.492,4.243622902270483,120.43132328308208,6.9371444695259585,11.728636363636362,19.495495495495497
77,Britain Covey,2023,1.0,6.0,4.0,42.0,52.0,26.0,0.0,0.0,8.2,0.01,0.009,0.0,7.0,10.5,0.0,0.0,4.0,0.0,0.0,42.0,10.5,2.0,0.0,21.0,0.0,21.0,4.1,0.0,0.109,120,0.004,2022.0,8.0,48.0,263.0,68.0,173.0,26,11,6,0,0.647,1.0,6.0,6.0,4.0,4.0,42.0,42.0,52.0,52.0,26.0,26.0,0.0,0.0,0.0,0.0,8.199999809265137,8.199999809265137,4.0,4.0,0.0,0.0,42.0,42.0,2.0,2.0,120.0,120.0,0.0,0.0,0.0,0.0,0.0,7.0,10.5,0.0,0.0,0.0,10.5,0.0,21.0,0.0,21.0,4.1,1.0,2.0,17709.69645390071,20112021.9964539,2011.186524822695,72.68675177304964,207.25886524822695,9.586666666666668,52200.00992907801,72.80425531914894,207.31560283687944,32.67433333333334,4.5200463320463315,35.373366013071895,15.492,4.243622902270483,120.43132328308208,6.9371444695259585,11.728636363636362,19.495495495495497
78,Brittan Golden,2013,3.0,10.0,4.0,136.0,180.0,75.0,0.0,0.0,17.6,0.037,0.015,0.0,13.6,34.0,0.0,0.0,4.0,0.0,0.0,136.0,34.0,5.0,0.0,27.2,0.0,27.2,3.52,0.0,0.132,134,0.014,2012.0,8.0,48.0,263.0,72.0,196.0,25,10,6,0,0.625,1.0,10.0,10.0,4.0,4.0,136.0,136.0,180.0,180.0,75.0,75.0,0.0,0.0,0.0,0.0,17.600000381469727,17.600000381469727,4.0,4.0,0.0,0.0,136.0,136.0,5.0,5.0,134.0,134.0,0.0,0.0,0.0,0.0,0.0,13.6,34.0,0.0,0.0,0.0,34.0,0.0,27.2,0.0,27.2,3.52,5.0,5.0,17709.69645390071,20112021.9964539,2011.186524822695,72.68675177304964,207.25886524822695,9.586666666666668,52200.00992907801,72.80425531914894,207.31560283687944,32.67433333333334,4.5200463320463315,35.373366013071895,15.492,4.243622902270483,120.43132328308208,6.9371444695259585,11.728636363636362,19.495495495495497
79,Bruce Ellington,2014,2.0,12.0,6.0,62.0,101.0,33.0,2.0,0.0,33.0,0.026,0.025,0.167,5.17,10.33,0.167,4.67,12.0,3.0,0.25,90.0,7.5,7.0,0.0,8.86,4.0,12.86,4.71,0.0,0.114,113,0.01,2014.0,4.0,6.0,106.0,69.0,200.0,23,8,8,0,0.5,0.0,12.0,12.0,6.0,6.0,62.0,62.0,101.0,101.0,33.0,33.0,2.0,2.0,0.0,0.0,33.0,33.0,12.0,12.0,3.0,3.0,90.0,90.0,7.0,7.0,113.0,113.0,0.0,0.0,0.0,0.0,0.167,5.17,10.33,0.167,4.67,0.25,7.5,0.0,8.86,4.0,12.86,4.71,5.0,5.0,18342.0,20140106.0,2014.0,69.38,197.0,9.586666666666668,29208.0,69.0,197.0,32.67433333333334,4.45,39.5,15.0,3.95,120.0,6.69,11.728636363636362,19.495495495495497
80,Bryan Edwards,2020,1.0,15.0,11.0,193.0,127.0,80.0,1.0,0.0,36.3,0.024,0.023,0.067,12.87,17.55,0.0,0.0,11.0,1.0,0.09,193.0,17.55,9.0,0.0,21.44,0.0,21.44,4.03,0.0,0.316,323,0.018,2020.0,3.0,17.0,81.0,75.0,215.0,22,8,8,0,0.5,0.0,15.0,15.0,11.0,11.0,193.0,193.0,127.0,127.0,80.0,80.0,1.0,1.0,0.0,0.0,36.29999923706055,36.29999923706055,11.0,11.0,1.0,1.0,193.0,193.0,9.0,9.0,323.0,323.0,0.0,0.0,0.0,0.0,0.067,12.87,17.55,0.0,0.0,0.09,17.55,0.0,21.44,0.0,21.44,4.03,4.0,4.0,17709.69645390071,20112021.9964539,2011.186524822695,72.68675177304964,207.25886524822695,9.586666666666668,52200.00992907801,72.80425531914894,207.31560283687944,32.67433333333334,4.5200463320463315,35.373366013071895,15.492,4.243622902270483,120.43132328308208,6.9371444695259585,11.728636363636362,19.495495495495497
81,Bryce Treggs,2016,2.0,12.0,3.0,80.0,339.0,16.0,0.0,0.0,11.7,0.064,0.018,0.0,6.67,26.67,0.0,3.5,5.0,0.0,0.0,87.0,17.4,6.0,0.0,13.33,1.17,14.5,1.95,0.0,0.202,216,0.009,2016.0,8.0,48.0,263.0,72.0,185.0,22,7,9,0,0.438,0.0,12.0,12.0,3.0,3.0,80.0,80.0,339.0,339.0,16.0,16.0,0.0,0.0,0.0,0.0,11.699999809265137,11.699999809265137,5.0,5.0,0.0,0.0,87.0,87.0,6.0,6.0,216.0,216.0,0.0,0.0,0.0,0.0,0.0,6.67,26.67,0.0,3.5,0.0,17.4,0.0,13.33,1.17,14.5,1.95,1.0,1.0,17709.69645390071,20112021.9964539,2011.186524822695,72.68675177304964,207.25886524822695,9.586666666666668,52200.00992907801,72.80425531914894,207.31560283687944,32.67433333333334,4.5200463320463315,35.373366013071895,15.492,4.243622902270483,120.43132328308208,6.9371444695259585,11.728636363636362,19.495495495495497
82,Byron Pringle,2019,3.0,16.0,12.0,170.0,178.0,63.0,1.0,0.0,35.0,0.045,0.031,0.062,10.62,14.17,0.0,0.0,12.0,1.0,0.08,170.0,14.17,6.0,0.0,28.33,0.0,28.33,5.83,0.0,0.166,159,0.016,2018.0,8.0,48.0,263.0,73.0,203.0,26,12,4,0,0.75,1.0,16.0,16.0,12.0,12.0,170.0,170.0,178.0,178.0,63.0,63.0,1.0,1.0,0.0,0.0,35.0,35.0,12.0,12.0,1.0,1.0,170.0,170.0,6.0,6.0,159.0,159.0,0.0,0.0,0.0,0.0,0.062,10.62,14.17,0.0,0.0,0.08,14.17,0.0,28.33,0.0,28.33,5.83,4.0,4.0,20167.0,20180564.0,2018.0,73.0,203.0,9.586666666666668,66506.0,73.0,203.0,32.67433333333334,4.46,33.5,15.0,4.4,120.0,6.87,11.728636363636362,19.495495495495497
83,C.J. Board,2019,2.0,4.0,2.0,31.0,31.0,6.0,0.0,0.0,5.1,0.006,0.006,0.0,7.75,15.5,0.0,0.0,2.0,0.0,0.0,31.0,15.5,2.0,0.0,15.5,0.0,15.5,2.55,0.0,0.138,140,0.003,2017.0,8.0,48.0,263.0,73.0,181.0,26,6,10,0,0.375,2.0,4.0,2.0,2.0,1.0,31.0,15.5,31.0,15.5,6.0,3.0,0.0,0.0,0.0,0.0,5.099999904632568,2.549999952316284,2.0,1.0,0.0,0.0,31.0,15.5,2.0,1.0,140.0,70.0,0.0,0.0,0.0,0.0,0.0,7.75,15.5,0.0,0.0,0.0,15.5,0.0,15.5,0.0,15.5,2.55,1.0,1.0,17709.69645390071,20112021.9964539,2011.186524822695,72.68675177304964,207.25886524822695,9.586666666666668,52200.00992907801,72.80425531914894,207.31560283687944,32.67433333333334,4.5200463320463315,35.373366013071895,15.492,4.243622902270483,120.43132328308208,6.9371444695259585,11.728636363636362,19.495495495495497
84,Calvin Austin,2023,1.0,30.0,17.0,180.0,378.0,73.0,1.0,0.0,52.7,0.076,0.049,0.033,6.0,10.59,0.091,5.18,28.0,2.0,0.07,237.0,8.46,14.0,0.0,12.86,4.07,16.93,3.76,0.0,0.355,357,0.028,2022.0,4.0,33.0,138.0,69.0,162.0,24,10,7,0,0.588,1.0,30.0,30.0,17.0,17.0,180.0,180.0,378.0,378.0,73.0,73.0,1.0,1.0,0.0,0.0,52.70000076293945,52.70000076293945,28.0,28.0,2.0,2.0,237.0,237.0,14.0,14.0,357.0,357.0,0.0,0.0,0.0,0.0,0.033,6.0,10.59,0.091,5.18,0.07,8.46,0.0,12.86,4.07,16.93,3.76,1.0,1.0,17709.69645390071,20112021.9964539,2011.186524822695,72.68675177304964,207.25886524822695,9.586666666666668,52200.00992907801,72.80425531914894,207.31560283687944,32.67433333333334,4.5200463320463315,35.373366013071895,15.492,4.243622902270483,120.43132328308208,6.9371444695259585,11.728636363636362,19.495495495495497
85,Calvin Johnson,2012,1.0,204.0,122.0,1964.0,2753.0,503.0,6.0,3.0,345.4,0.426,0.267,0.029,9.63,16.1,0.0,0.0,122.0,6.0,0.05,1964.0,16.1,16.0,0.0,122.75,0.0,122.75,21.59,0.0,0.96,1105,0.168,2007.0,1.0,2.0,2.0,77.0,237.0,27,4,12,0,0.25,5.0,204.0,40.8,122.0,24.4,1964.0,392.8,2753.0,550.6,503.0,100.6,6.0,1.2,3.0,0.6,345.3999938964844,69.07999877929687,122.0,24.4,6.0,1.2,1964.0,392.8,16.0,3.2,1105.0,221.0,0.0,0.0,0.0,0.0,0.029,9.63,16.1,0.0,0.0,0.05,16.1,0.0,122.75,0.0,122.75,21.59,12.0,12.0,16353.0,20070002.0,2007.0,77.0,239.0,9.586666666666668,30332.0,77.0,236.0,32.67433333333334,4.38,35.373366013071895,15.492,4.243622902270483,120.43132328308208,6.9371444695259585,11.728636363636362,19.495495495495497
86,Calvin Ridley,2018,2.0,92.0,64.0,821.0,936.0,364.0,10.0,1.0,205.8,0.187,0.143,0.109,8.92,12.83,0.0,4.5,70.0,10.0,0.14,848.0,12.11,16.0,0.0,51.31,1.69,53.0,12.86,0.0,0.607,611,0.076,2018.0,1.0,26.0,26.0,73.0,190.0,24,7,9,0,0.438,0.0,92.0,92.0,64.0,64.0,821.0,821.0,936.0,936.0,364.0,364.0,10.0,10.0,1.0,1.0,205.8000030517578,205.8000030517578,70.0,70.0,10.0,10.0,848.0,848.0,16.0,16.0,611.0,611.0,0.0,0.0,0.0,0.0,0.109,8.92,12.83,0.0,4.5,0.14,12.11,0.0,51.31,1.69,53.0,12.86,10.0,49.0,17709.69645390071,20112021.9964539,2011.186524822695,72.68675177304964,207.25886524822695,9.586666666666668,52200.00992907801,72.80425531914894,207.31560283687944,32.67433333333334,4.5200463320463315,35.373366013071895,15.492,4.243622902270483,120.43132328308208,6.9371444695259585,11.728636363636362,19.495495495495497
87,Cam Phillips,2018,2.0,1.0,1.0,9.0,2.0,7.0,0.0,0.0,1.9,0.001,0.002,0.0,9.0,9.0,0.0,0.0,1.0,0.0,0.0,9.0,9.0,1.0,0.0,9.0,0.0,9.0,1.9,0.0,0.23,230,0.001,2018.0,8.0,48.0,263.0,72.0,201.0,23,6,10,0,0.375,0.0,1.0,1.0,1.0,1.0,9.0,9.0,2.0,2.0,7.0,7.0,0.0,0.0,0.0,0.0,1.899999976158142,1.899999976158142,1.0,1.0,0.0,0.0,9.0,9.0,1.0,1.0,230.0,230.0,0.0,0.0,0.0,0.0,0.0,9.0,9.0,0.0,0.0,0.0,9.0,0.0,9.0,0.0,9.0,1.9,2.0,23.0,20162.0,20180704.0,2018.0,72.0,201.0,9.586666666666668,24061.0,72.0,201.0,32.67433333333334,4.5200463320463315,35.373366013071895,15.492,4.243622902270483,120.43132328308208,6.9371444695259585,11.728636363636362,19.495495495495497
88,Cam Sims,2019,3.0,3.0,2.0,27.0,35.0,8.0,0.0,0.0,4.7,0.009,0.006,0.0,9.0,13.5,0.0,0.0,2.0,0.0,0.0,27.0,13.5,2.0,0.0,13.5,0.0,13.5,2.35,0.0,0.131,115,0.004,2018.0,8.0,48.0,263.0,77.0,214.0,23,3,13,0,0.188,1.0,3.0,3.0,2.0,2.0,27.0,27.0,35.0,35.0,8.0,8.0,0.0,0.0,0.0,0.0,4.699999809265137,4.699999809265137,2.0,2.0,0.0,0.0,27.0,27.0,2.0,2.0,115.0,115.0,0.0,0.0,0.0,0.0,0.0,9.0,13.5,0.0,0.0,0.0,13.5,0.0,13.5,0.0,13.5,2.35,2.0,23.0,17709.69645390071,20112021.9964539,2011.186524822695,72.68675177304964,207.25886524822695,9.586666666666668,52200.00992907801,72.80425531914894,207.31560283687944,32.67433333333334,4.5200463320463315,35.373366013071895,15.492,4.243622902270483,120.43132328308208,6.9371444695259585,11.728636363636362,19.495495495495497
89,Cameron Batson,2018,2.0,11.0,8.0,82.0,73.0,54.0,1.0,0.0,22.3,0.015,0.019,0.091,7.45,10.25,0.0,1.0,9.0,1.0,0.11,83.0,9.22,6.0,0.0,13.67,0.17,13.83,3.72,0.0,0.281,261,0.01,2018.0,8.0,48.0,263.0,68.0,175.0,23,9,7,0,0.562,0.0,11.0,11.0,8.0,8.0,82.0,82.0,73.0,73.0,54.0,54.0,1.0,1.0,0.0,0.0,22.299999237060547,22.299999237060547,9.0,9.0,1.0,1.0,83.0,83.0,6.0,6.0,261.0,261.0,0.0,0.0,0.0,0.0,0.091,7.45,10.25,0.0,1.0,0.11,9.22,0.0,13.67,0.17,13.83,3.72,1.0,5.0,17709.69645390071,20112021.9964539,2011.186524822695,72.68675177304964,207.25886524822695,9.586666666666668,52200.00992907801,72.80425531914894,207.31560283687944,32.67433333333334,4.5200463320463315,35.373366013071895,15.492,4.243622902270483,120.43132328308208,6.9371444695259585,11.728636363636362,19.495495495495497
90,Cameron Meredith,2015,3.0,16.0,11.0,120.0,178.0,37.0,0.0,0.0,23.0,0.037,0.03,0.0,7.5,10.91,0.0,0.0,11.0,0.0,0.0,120.0,10.91,6.0,0.0,20.0,0.0,20.0,3.83,0.0,0.21,214,0.013,2015.0,8.0,48.0,263.0,75.0,207.0,23,6,10,0,0.375,0.0,16.0,16.0,11.0,11.0,120.0,120.0,178.0,178.0,37.0,37.0,0.0,0.0,0.0,0.0,23.0,23.0,11.0,11.0,0.0,0.0,120.0,120.0,6.0,6.0,214.0,214.0,0.0,0.0,0.0,0.0,0.0,7.5,10.91,0.0,0.0,0.0,10.91,0.0,20.0,0.0,20.0,3.83,1.0,1.0,17709.69645390071,20112021.9964539,2011.186524822695,72.68675177304964,207.25886524822695,9.586666666666668,52200.00992907801,72.80425531914894,207.31560283687944,32.67433333333334,4.5200463320463315,35.373366013071895,15.492,4.243622902270483,120.43132328308208,6.9371444695259585,11.728636363636362,19.495495495495497
91,Cecil Shorts,2012,2.0,105.0,55.0,979.0,1307.0,360.0,8.0,1.0,197.5,0.262,0.165,0.076,9.32,17.8,0.0,-4.0,56.0,8.0,0.14,975.0,17.41,14.0,0.0,69.93,-0.29,69.64,14.11,0.0,0.739,733,0.114,2011.0,4.0,17.0,114.0,72.0,202.0,25,2,14,0,0.125,1.0,105.0,105.0,55.0,55.0,979.0,979.0,1307.0,1307.0,360.0,360.0,8.0,8.0,1.0,1.0,197.5,197.5,56.0,56.0,8.0,8.0,975.0,975.0,14.0,14.0,733.0,733.0,0.0,0.0,0.0,0.0,0.076,9.32,17.8,0.0,-4.0,0.14,17.41,0.0,69.93,-0.29,69.64,14.11,3.0,3.0,17587.0,20110114.0,2011.0,71.75,205.0,9.586666666666668,44601.0,72.0,202.0,32.67433333333334,4.5,34.5,21.0,4.07,114.0,6.5,11.728636363636362,19.495495495495497
92,Cedric Tillman,2023,2.0,44.0,21.0,224.0,468.0,88.0,1.0,0.0,50.2,0.11,0.073,0.023,5.09,10.67,0.0,8.0,22.0,1.0,0.05,232.0,10.55,11.0,0.0,20.36,0.73,21.09,4.56,0.0,0.61,720,0.024,2023.0,3.0,11.0,74.0,75.0,215.0,23,11,6,0,0.647,0.0,44.0,44.0,21.0,21.0,224.0,224.0,468.0,468.0,88.0,88.0,1.0,1.0,0.0,0.0,50.20000076293945,50.20000076293945,22.0,22.0,1.0,1.0,232.0,232.0,11.0,11.0,720.0,720.0,0.0,0.0,0.0,0.0,0.023,5.09,10.67,0.0,8.0,0.05,10.55,0.0,20.36,0.73,21.09,4.56,2.0,2.0,12038.0,19920305.0,1992.0,73.8,207.0,10.75,39096.0,74.0,219.0,32.63,4.81,31.5,15.492,4.4,114.0,6.9371444695259585,12.0,19.495495495495497
93,Cedrick Wilson,2019,2.0,8.0,5.0,46.0,134.0,11.0,0.0,0.0,9.6,0.023,0.012,0.0,5.75,9.2,0.0,0.0,5.0,0.0,0.0,46.0,9.2,3.0,0.0,15.33,0.0,15.33,3.2,0.0,0.24,254,0.004,2018.0,6.0,34.0,208.0,74.0,197.0,24,8,8,0,0.5,1.0,8.0,8.0,5.0,5.0,46.0,46.0,134.0,134.0,11.0,11.0,0.0,0.0,0.0,0.0,9.600000381469728,9.600000381469728,5.0,5.0,0.0,0.0,46.0,46.0,3.0,3.0,254.0,254.0,0.0,0.0,0.0,0.0,0.0,5.75,9.2,0.0,0.0,0.0,9.2,0.0,15.33,0.0,15.33,3.2,2.0,2.0,14863.0,20010169.0,2001.0,69.8,179.0,9.586666666666668,37998.0,70.0,183.0,32.67433333333334,4.46,38.0,15.492,4.243622902270483,123.0,6.9371444695259585,11.728636363636362,19.495495495495497
94,CeeDee Lamb,2020,1.0,111.0,74.0,935.0,1031.0,311.0,5.0,1.0,208.74,0.178,0.16,0.045,8.42,12.64,0.091,7.64,86.0,6.0,0.07,1015.0,11.8,16.0,-0.25,58.44,5.25,63.44,13.05,-14.58,0.631,701,0.097,2020.0,1.0,17.0,17.0,74.0,200.0,21,6,10,0,0.375,0.0,111.0,111.0,74.0,74.0,935.0,935.0,1031.0,1031.0,311.0,311.0,5.0,5.0,1.0,1.0,208.7400054931641,208.7400054931641,86.0,86.0,6.0,6.0,1015.0,1015.0,16.0,16.0,701.0,701.0,0.0,0.0,0.0,-4.0,0.045,8.42,12.64,0.091,7.64,0.07,11.8,-0.25,58.44,5.25,63.44,13.05,5.0,7.0,17709.69645390071,20112021.9964539,2011.186524822695,72.68675177304964,207.25886524822695,9.586666666666668,52200.00992907801,72.80425531914894,207.31560283687944,32.67433333333334,4.5200463320463315,35.373366013071895,15.492,4.243622902270483,120.43132328308208,6.9371444695259585,11.728636363636362,19.495495495495497
95,Chad Beebe,2018,2.0,4.0,4.0,39.0,27.0,12.0,0.0,0.0,7.9,0.008,0.008,0.0,9.75,9.75,0.0,0.0,4.0,0.0,0.0,39.0,9.75,2.0,0.0,19.5,0.0,19.5,3.95,0.0,0.257,255,0.004,2018.0,8.0,48.0,263.0,70.0,183.0,24,8,8,1,0.471,0.0,4.0,4.0,4.0,4.0,39.0,39.0,27.0,27.0,12.0,12.0,0.0,0.0,0.0,0.0,7.900000095367432,7.900000095367432,4.0,4.0,0.0,0.0,39.0,39.0,2.0,2.0,255.0,255.0,0.0,0.0,0.0,0.0,0.0,9.75,9.75,0.0,0.0,0.0,9.75,0.0,19.5,0.0,19.5,3.95,5.0,5.0,17709.69645390071,20112021.9964539,2011.186524822695,72.68675177304964,207.25886524822695,9.586666666666668,52200.00992907801,72.80425531914894,207.31560283687944,32.67433333333334,4.5200463320463315,35.373366013071895,15.492,4.243622902270483,120.43132328308208,6.9371444695259585,11.728636363636362,19.495495495495497
96,Chad Hansen,2017,2.0,17.0,9.0,94.0,172.0,22.0,0.0,0.0,18.4,0.039,0.032,0.0,5.53,10.44,0.0,0.0,9.0,0.0,0.0,94.0,10.44,6.0,0.0,15.67,0.0,15.67,3.07,0.0,0.345,333,0.011,2017.0,4.0,33.0,141.0,74.0,202.0,22,5,11,0,0.312,0.0,17.0,17.0,9.0,9.0,94.0,94.0,172.0,172.0,22.0,22.0,0.0,0.0,0.0,0.0,18.399999618530277,18.399999618530277,9.0,9.0,0.0,0.0,94.0,94.0,6.0,6.0,333.0,333.0,0.0,0.0,0.0,0.0,0.0,5.53,10.44,0.0,0.0,0.0,10.44,0.0,15.67,0.0,15.67,3.07,5.0,5.0,19747.0,20170141.0,2017.0,73.75,202.0,9.586666666666668,94720.0,74.0,202.0,32.67433333333334,4.53,35.0,11.0,4.13,119.0,6.74,11.728636363636362,19.495495495495497
97,Chad Williams,2017,3.0,7.0,3.0,31.0,80.0,6.0,0.0,0.0,9.4,0.016,0.011,0.0,4.43,10.33,0.0,16.5,5.0,0.0,0.0,64.0,12.8,5.0,0.0,6.2,6.6,12.8,1.88,0.0,0.233,243,0.007,2017.0,3.0,34.0,98.0,74.0,204.0,23,8,8,0,0.5,0.0,7.0,7.0,3.0,3.0,31.0,31.0,80.0,80.0,6.0,6.0,0.0,0.0,0.0,0.0,9.399999618530272,9.399999618530272,5.0,5.0,0.0,0.0,64.0,64.0,5.0,5.0,243.0,243.0,0.0,0.0,0.0,0.0,0.0,4.43,10.33,0.0,16.5,0.0,12.8,0.0,6.2,6.6,12.8,1.88,3.0,3.0,15127.0,20020209.0,2002.0,69.5,207.0,9.586666666666668,39406.0,69.0,207.0,32.67433333333334,4.5,36.5,20.0,4.243622902270483,120.0,6.96,11.728636363636362,19.495495495495497
98,Charles Johnson,2014,2.0,59.0,31.0,475.0,871.0,171.0,3.0,0.0,95.4,0.26,0.114,0.051,8.05,15.32,0.0,-11.0,32.0,3.0,0.09,464.0,14.5,11.0,0.0,43.18,-1.0,42.18,8.67,0.0,0.598,578,0.054,2013.0,7.0,10.0,216.0,74.0,215.0,25,7,9,0,0.438,1.0,59.0,59.0,31.0,31.0,475.0,475.0,871.0,871.0,171.0,171.0,3.0,3.0,0.0,0.0,95.4000015258789,95.4000015258789,32.0,32.0,3.0,3.0,464.0,464.0,11.0,11.0,578.0,578.0,0.0,0.0,0.0,0.0,0.051,8.05,15.32,0.0,-11.0,0.09,14.5,0.0,43.18,-1.0,42.18,8.67,1.0,49.0,12583.0,19940017.0,1994.0,72.3,188.0,9.25,80309.0,72.0,205.0,32.0,4.5200463320463315,35.373366013071895,15.492,4.243622902270483,120.43132328308208,6.9371444695259585,11.728636363636362,19.495495495495497
99,Charlie Jones,2023,2.0,9.0,7.0,64.0,79.0,38.0,0.0,0.0,14.7,0.017,0.015,0.0,7.11,9.14,0.0,6.5,9.0,0.0,0.0,77.0,8.56,4.0,0.0,16.0,3.25,19.25,3.67,0.0,0.089,91,0.008,2023.0,4.0,29.0,131.0,72.0,183.0,25,9,8,0,0.529,0.0,9.0,9.0,7.0,7.0,64.0,64.0,79.0,79.0,38.0,38.0,0.0,0.0,0.0,0.0,14.699999809265137,14.699999809265137,9.0,9.0,0.0,0.0,77.0,77.0,4.0,4.0,91.0,91.0,0.0,0.0,0.0,0.0,0.0,7.11,9.14,0.0,6.5,0.0,8.56,0.0,16.0,3.25,19.25,3.67,3.0,3.0,13191.0,19960114.0,1996.0,68.0,175.0,9.63,93740.0,68.0,175.0,31.63,4.59,34.0,15.492,4.59,117.0,6.9371444695259585,11.76,19.495495495495497
100,Charone Peake,2016,2.0,35.0,19.0,186.0,317.0,71.0,0.0,0.0,37.6,0.072,0.065,0.0,5.31,9.79,0.0,0.0,19.0,0.0,0.0,186.0,9.79,11.0,0.0,16.91,0.0,16.91,3.42,0.0,0.388,387,0.021,2016.0,7.0,20.0,241.0,74.0,209.0,24,5,11,0,0.312,0.0,35.0,35.0,19.0,19.0,186.0,186.0,317.0,317.0,71.0,71.0,0.0,0.0,0.0,0.0,37.59999847412109,37.59999847412109,19.0,19.0,0.0,0.0,186.0,186.0,11.0,11.0,387.0,387.0,0.0,0.0,0.0,0.0,0.0,5.31,9.79,0.0,0.0,0.0,9.79,0.0,16.91,0.0,16.91,3.42,3.0,3.0,19536.0,20160241.0,2016.0,74.38,209.0,9.586666666666668,29631.0,74.0,209.0,32.67433333333334,4.45,35.5,12.0,4.46,122.0,6.96,11.728636363636362,19.495495495495497
101,Chase Claypool,2020,2.0,112.0,62.0,859.0,1438.0,315.0,9.0,1.0,212.5,0.291,0.185,0.08,7.67,13.85,0.2,1.6,72.0,11.0,0.15,875.0,12.15,16.0,0.0,53.69,1.0,54.69,13.28,0.0,0.628,644,0.092,2020.0,2.0,17.0,49.0,76.0,238.0,22,12,4,0,0.75,0.0,112.0,112.0,62.0,62.0,859.0,859.0,1438.0,1438.0,315.0,315.0,9.0,9.0,1.0,1.0,212.5,212.5,72.0,72.0,11.0,11.0,875.0,875.0,16.0,16.0,644.0,644.0,0.0,0.0,0.0,0.0,0.08,7.67,13.85,0.2,1.6,0.15,12.15,0.0,53.69,1.0,54.69,13.28,2.0,2.0,17709.69645390071,20112021.9964539,2011.186524822695,72.68675177304964,207.25886524822695,9.586666666666668,52200.00992907801,72.80425531914894,207.31560283687944,32.67433333333334,4.5200463320463315,35.373366013071895,15.492,4.243622902270483,120.43132328308208,6.9371444695259585,11.728636363636362,19.495495495495497
102,Chaz Schilens,2012,2.0,41.0,28.0,289.0,420.0,49.0,2.0,1.0,65.9,0.096,0.076,0.049,7.05,10.32,0.0,0.0,28.0,2.0,0.07,289.0,10.32,12.0,0.0,24.08,0.0,24.08,5.49,0.0,0.513,527,0.036,2008.0,7.0,19.0,226.0,76.0,225.0,27,6,10,0,0.375,4.0,41.0,10.25,28.0,7.0,289.0,72.25,420.0,105.0,49.0,12.25,2.0,0.5,1.0,0.25,65.9000015258789,16.475000381469727,28.0,7.0,2.0,0.5,289.0,72.25,12.0,3.0,527.0,131.75,0.0,0.0,0.0,0.0,0.049,7.05,10.32,0.0,0.0,0.07,10.32,0.0,24.08,0.0,24.08,5.49,7.0,7.0,17709.69645390071,20112021.9964539,2011.186524822695,72.68675177304964,207.25886524822695,9.586666666666668,52200.00992907801,72.80425531914894,207.31560283687944,32.67433333333334,4.5200463320463315,35.373366013071895,15.492,4.243622902270483,120.43132328308208,6.9371444695259585,11.728636363636362,19.495495495495497
103,Chester Rogers,2016,2.0,34.0,19.0,276.0,397.0,54.0,0.0,0.0,46.6,0.062,0.051,0.0,8.12,14.53,0.0,0.0,19.0,0.0,0.0,276.0,14.53,10.0,0.0,27.6,0.0,27.6,4.66,0.0,0.444,451,0.027,2016.0,8.0,48.0,263.0,72.0,184.0,22,8,8,0,0.5,0.0,34.0,34.0,19.0,19.0,276.0,276.0,397.0,397.0,54.0,54.0,0.0,0.0,0.0,0.0,46.59999847412109,46.59999847412109,19.0,19.0,0.0,0.0,276.0,276.0,10.0,10.0,451.0,451.0,0.0,0.0,0.0,0.0,0.0,8.12,14.53,0.0,0.0,0.0,14.53,0.0,27.6,0.0,27.6,4.66,1.0,1.0,17709.69645390071,20112021.9964539,2011.186524822695,72.68675177304964,207.25886524822695,9.586666666666668,52200.00992907801,72.80425531914894,207.31560283687944,32.67433333333334,4.5200463320463315,35.373366013071895,15.492,4.243622902270483,120.43132328308208,6.9371444695259585,11.728636363636362,19.495495495495497
104,Chris Conley,2015,3.0,31.0,17.0,199.0,344.0,69.0,1.0,0.0,42.9,0.088,0.061,0.032,6.42,11.71,0.0,0.0,17.0,1.0,0.06,199.0,11.71,9.0,0.0,22.11,0.0,22.11,4.77,0.0,0.362,342,0.023,2015.0,3.0,12.0,76.0,75.0,205.0,23,11,5,0,0.688,0.0,31.0,31.0,17.0,17.0,199.0,199.0,344.0,344.0,69.0,69.0,1.0,1.0,0.0,0.0,42.900001525878906,42.900001525878906,17.0,17.0,1.0,1.0,199.0,199.0,9.0,9.0,342.0,342.0,0.0,0.0,0.0,0.0,0.032,6.42,11.71,0.0,0.0,0.06,11.71,0.0,22.11,0.0,22.11,4.77,5.0,5.0,18630.0,20150076.0,2015.0,73.7,213.0,9.586666666666668,30602.0,75.0,205.0,32.67433333333334,4.35,45.0,18.0,4.3,139.0,7.06,11.728636363636362,19.495495495495497
105,Chris Givens,2015,2.0,54.0,20.0,353.0,723.0,52.0,1.0,0.0,63.1,0.132,0.09,0.019,6.54,17.65,0.0,4.5,24.0,1.0,0.04,371.0,15.46,12.0,0.0,29.42,1.5,30.92,5.26,0.0,0.524,565,0.036,2012.0,4.0,1.0,96.0,72.0,203.0,26,5,11,0,0.312,3.0,54.0,18.0,20.0,6.666666666666667,353.0,117.66666666666669,723.0,241.0,52.0,17.333333333333332,1.0,0.3333333333333333,0.0,0.0,63.09999847412109,21.03333282470703,24.0,8.0,1.0,0.3333333333333333,371.0,123.66666666666669,12.0,4.0,565.0,188.33333333333331,0.0,0.0,0.0,0.0,0.019,6.54,17.65,0.0,4.5,0.04,15.46,0.0,29.42,1.5,30.92,5.26,1.0,2.0,17747.0,20120096.0,2012.0,71.13,198.0,9.586666666666668,27106.0,73.0,203.0,32.67433333333334,4.35,33.5,19.0,4.23,118.0,6.97,11.728636363636362,19.495495495495497
106,Chris Godwin,2017,2.0,55.0,34.0,525.0,725.0,169.0,1.0,0.0,92.5,0.128,0.093,0.018,9.55,15.44,0.0,0.0,34.0,1.0,0.03,525.0,15.44,15.0,0.0,35.0,0.0,35.0,6.17,0.0,0.405,417,0.05,2017.0,3.0,20.0,84.0,73.0,209.0,21,5,11,0,0.312,0.0,55.0,55.0,34.0,34.0,525.0,525.0,725.0,725.0,169.0,169.0,1.0,1.0,0.0,0.0,92.5,92.5,34.0,34.0,1.0,1.0,525.0,525.0,15.0,15.0,417.0,417.0,0.0,0.0,0.0,0.0,0.018,9.55,15.44,0.0,0.0,0.03,15.44,0.0,35.0,0.0,35.0,6.17,1.0,1.0,17709.69645390071,20112021.9964539,2011.186524822695,72.68675177304964,207.25886524822695,9.586666666666668,52200.00992907801,72.80425531914894,207.31560283687944,32.67433333333334,4.5200463320463315,35.373366013071895,15.492,4.243622902270483,120.43132328308208,6.9371444695259585,11.728636363636362,19.495495495495497
107,Chris Harper,2015,3.0,3.0,1.0,6.0,56.0,1.0,0.0,0.0,1.6,0.01,0.005,0.0,2.0,6.0,0.0,0.0,1.0,0.0,0.0,6.0,6.0,3.0,0.0,2.0,0.0,2.0,0.53,0.0,0.216,222,0.001,2015.0,8.0,48.0,263.0,71.0,185.0,22,12,4,0,0.75,0.0,3.0,3.0,1.0,1.0,6.0,6.0,56.0,56.0,1.0,1.0,0.0,0.0,0.0,0.0,1.600000023841858,1.600000023841858,1.0,1.0,0.0,0.0,6.0,6.0,3.0,3.0,222.0,222.0,0.0,0.0,0.0,0.0,0.0,2.0,6.0,0.0,0.0,0.0,6.0,0.0,2.0,0.0,2.0,0.53,4.0,4.0,18069.0,20130123.0,2013.0,72.75,229.0,9.586666666666668,66506.0,73.0,228.0,32.67433333333334,4.55,35.5,20.0,4.39,116.0,6.89,11.728636363636362,33.0
108,Chris Hogan,2013,3.0,17.0,10.0,83.0,132.0,27.0,0.0,0.0,18.3,0.033,0.032,0.0,4.88,8.3,0.0,0.0,10.0,0.0,0.0,83.0,8.3,6.0,0.0,13.83,0.0,13.83,3.05,0.0,0.212,232,0.009,2011.0,8.0,48.0,263.0,73.0,210.0,25,6,10,0,0.375,2.0,17.0,8.5,10.0,5.0,83.0,41.5,132.0,66.0,27.0,13.5,0.0,0.0,0.0,0.0,18.299999237060547,9.149999618530272,10.0,5.0,0.0,0.0,83.0,41.5,6.0,3.0,232.0,116.0,0.0,0.0,0.0,0.0,0.0,4.88,8.3,0.0,0.0,0.0,8.3,0.0,13.83,0.0,13.83,3.05,1.0,1.0,17709.69645390071,20112021.9964539,2011.186524822695,72.68675177304964,207.25886524822695,9.586666666666668,52200.00992907801,72.80425531914894,207.31560283687944,32.67433333333334,4.5200463320463315,35.373366013071895,15.492,4.243622902270483,120.43132328308208,6.9371444695259585,11.728636363636362,19.495495495495497
109,Chris Lacy,2018,3.0,1.0,0.0,0.0,9.0,0.0,0.0,0.0,0.0,0.001,0.001,0.0,0.0,0.0,0.0,0.0,0.0,0.0,0.0,0.0,0.0,1.0,0.0,0.0,0.0,0.0,0.0,0.0,0.48,486,0.0,2018.0,8.0,48.0,263.0,75.0,205.0,22,6,10,0,0.375,0.0,1.0,1.0,0.0,0.0,0.0,0.0,9.0,9.0,0.0,0.0,0.0,0.0,0.0,0.0,0.0,0.0,0.0,0.0,0.0,0.0,0.0,0.0,1.0,1.0,486.0,486.0,0.0,0.0,0.0,0.0,0.0,0.0,0.0,0.0,0.0,0.0,0.0,0.0,0.0,0.0,0.0,0.0,1.0,19.0,20117.0,20180615.0,2018.0,75.0,205.0,9.586666666666668,74078.0,75.0,205.0,32.67433333333334,4.51,33.5,11.0,4.243622902270483,120.0,6.9371444695259585,11.728636363636362,19.495495495495497
110,Chris Moore,2016,2.0,16.0,7.0,46.0,143.0,14.0,0.0,0.0,13.5,0.026,0.027,0.0,2.88,6.57,0.0,6.33,10.0,0.0,0.0,65.0,6.5,9.0,0.0,5.11,2.11,7.22,1.5,0.0,0.162,172,0.007,2016.0,4.0,9.0,107.0,73.0,200.0,23,8,8,0,0.5,0.0,16.0,16.0,7.0,7.0,46.0,46.0,143.0,143.0,14.0,14.0,0.0,0.0,0.0,0.0,13.5,13.5,10.0,10.0,0.0,0.0,65.0,65.0,9.0,9.0,172.0,172.0,0.0,0.0,0.0,0.0,0.0,2.88,6.57,0.0,6.33,0.0,6.5,0.0,5.11,2.11,7.22,1.5,1.0,6.0,19513.0,20160107.0,2016.0,73.0,206.0,9.586666666666668,45221.0,73.0,204.0,32.67433333333334,4.53,37.0,10.0,4.2,130.0,6.76,11.728636363636362,19.495495495495497
111,Chris Olave,2022,3.0,120.0,72.0,1044.0,1686.0,210.0,5.0,2.0,200.4,0.308,0.173,0.042,8.7,14.5,0.0,0.0,72.0,5.0,0.07,1044.0,14.5,15.0,0.0,69.6,0.0,69.6,13.36,0.0,0.66,663,0.108,2022.0,1.0,11.0,11.0,72.0,187.0,22,7,10,0,0.412,0.0,120.0,120.0,72.0,72.0,1044.0,1044.0,1686.0,1686.0,210.0,210.0,5.0,5.0,2.0,2.0,200.3999938964844,200.3999938964844,72.0,72.0,5.0,5.0,1044.0,1044.0,15.0,15.0,663.0,663.0,0.0,0.0,0.0,0.0,0.042,8.7,14.5,0.0,0.0,0.07,14.5,0.0,69.6,0.0,69.6,13.36,3.0,3.0,17709.69645390071,20112021.9964539,2011.186524822695,72.68675177304964,207.25886524822695,9.586666666666668,52200.00992907801,72.80425531914894,207.31560283687944,32.67433333333334,4.5200463320463315,35.373366013071895,15.492,4.243622902270483,120.43132328308208,6.9371444695259585,11.728636363636362,19.495495495495497
112,Chris Thompson,2017,2.0,6.0,5.0,84.0,58.0,30.0,0.0,0.0,13.4,0.013,0.01,0.0,14.0,16.8,0.0,0.0,5.0,0.0,0.0,84.0,16.8,3.0,0.0,28.0,0.0,28.0,4.47,0.0,0.178,182,0.01,2017.0,8.0,48.0,263.0,72.0,175.0,23,4,12,0,0.25,0.0,6.0,6.0,5.0,5.0,84.0,84.0,58.0,58.0,30.0,30.0,0.0,0.0,0.0,0.0,13.399999618530272,13.399999618530272,5.0,5.0,0.0,0.0,84.0,84.0,3.0,3.0,182.0,182.0,0.0,0.0,0.0,0.0,0.0,14.0,16.8,0.0,0.0,0.0,16.8,0.0,28.0,0.0,28.0,4.47,1.0,1.0,15630.0,20040150.0,2004.0,72.0,189.0,9.586666666666668,70301.0,72.0,189.0,32.67433333333334,4.5,35.0,12.0,4.14,117.0,7.09,11.728636363636362,19.495495495495497
113,Christian Blake,2019,3.0,25.0,11.0,91.0,184.0,24.0,0.0,0.0,20.1,0.037,0.039,0.0,3.64,8.27,0.0,0.0,11.0,0.0,0.0,91.0,8.27,6.0,0.0,15.17,0.0,15.17,3.35,0.0,0.468,510,0.008,2018.0,8.0,48.0,263.0,73.0,181.0,23,7,9,0,0.438,1.0,25.0,25.0,11.0,11.0,91.0,91.0,184.0,184.0,24.0,24.0,0.0,0.0,0.0,0.0,20.100000381469727,20.100000381469727,11.0,11.0,0.0,0.0,91.0,91.0,6.0,6.0,510.0,510.0,0.0,0.0,0.0,0.0,0.0,3.64,8.27,0.0,0.0,0.0,8.27,0.0,15.17,0.0,15.17,3.35,6.0,28.0,17709.69645390071,20112021.9964539,2011.186524822695,72.68675177304964,207.25886524822695,9.586666666666668,52200.00992907801,72.80425531914894,207.31560283687944,32.67433333333334,4.5200463320463315,35.373366013071895,15.492,4.243622902270483,120.43132328308208,6.9371444695259585,11.728636363636362,19.495495495495497
114,Christian Kirk,2018,2.0,69.0,43.0,590.0,654.0,225.0,3.0,0.0,123.5,0.135,0.104,0.043,8.55,13.72,0.0,11.67,46.0,3.0,0.07,625.0,13.59,12.0,0.0,49.17,2.92,52.08,10.29,0.0,0.788,706,0.092,2018.0,2.0,15.0,47.0,71.0,200.0,22,3,13,0,0.188,0.0,69.0,69.0,43.0,43.0,590.0,590.0,654.0,654.0,225.0,225.0,3.0,3.0,0.0,0.0,123.5,123.5,46.0,46.0,3.0,3.0,625.0,625.0,12.0,12.0,706.0,706.0,0.0,0.0,0.0,0.0,0.043,8.55,13.72,0.0,11.67,0.07,13.59,0.0,49.17,2.92,52.08,10.29,6.0,28.0,20115.0,20180047.0,2018.0,70.0,201.0,9.586666666666668,77843.0,71.0,200.0,32.67433333333334,4.47,35.5,20.0,4.45,115.0,7.09,11.728636363636362,19.495495495495497
115,Christian Watson,2022,2.0,66.0,41.0,611.0,923.0,264.0,7.0,0.0,164.1,0.205,0.109,0.106,9.26,14.9,0.286,11.43,48.0,9.0,0.19,691.0,14.4,14.0,0.0,43.64,5.71,49.36,11.72,0.0,0.574,594,0.072,2022.0,2.0,2.0,34.0,76.0,208.0,23,8,9,0,0.471,0.0,66.0,66.0,41.0,41.0,611.0,611.0,923.0,923.0,264.0,264.0,7.0,7.0,0.0,0.0,164.10000610351562,164.10000610351562,48.0,48.0,9.0,9.0,691.0,691.0,14.0,14.0,594.0,594.0,0.0,0.0,0.0,0.0,0.106,9.26,14.9,0.286,11.43,0.19,14.4,0.0,43.64,5.71,49.36,11.72,6.0,6.0,17709.69645390071,20112021.9964539,2011.186524822695,72.68675177304964,207.25886524822695,9.586666666666668,52200.00992907801,72.80425531914894,207.31560283687944,32.67433333333334,4.5200463320463315,35.373366013071895,15.492,4.243622902270483,120.43132328308208,6.9371444695259585,11.728636363636362,19.495495495495497
116,Cobi Hamilton,2016,3.0,28.0,17.0,234.0,365.0,22.0,2.0,0.0,52.4,0.074,0.046,0.071,8.36,13.76,0.0,0.0,17.0,2.0,0.12,234.0,13.76,11.0,0.0,21.27,0.0,21.27,4.76,0.0,0.509,517,0.023,2013.0,6.0,29.0,197.0,74.0,201.0,26,11,5,0,0.688,3.0,28.0,9.333333333333334,17.0,5.666666666666667,234.0,78.0,365.0,121.66666666666669,22.0,7.333333333333333,2.0,0.6666666666666666,0.0,0.0,52.400001525878906,17.46666717529297,17.0,5.666666666666667,2.0,0.6666666666666666,234.0,78.0,11.0,3.6666666666666665,517.0,172.33333333333334,0.0,0.0,0.0,0.0,0.071,8.36,13.76,0.0,0.0,0.12,13.76,0.0,21.27,0.0,21.27,4.76,3.0,13.0,18067.0,20130197.0,2013.0,73.75,212.0,9.586666666666668,72701.0,74.0,201.0,32.67433333333334,4.56,29.5,11.0,4.31,107.0,6.9371444695259585,11.728636363636362,19.495495495495497
117,Cody Core,2016,3.0,27.0,17.0,200.0,195.0,118.0,0.0,0.0,37.0,0.042,0.046,0.0,7.41,11.76,0.0,0.0,17.0,0.0,0.0,200.0,11.76,6.0,0.0,33.33,0.0,33.33,6.17,0.0,0.499,518,0.02,2016.0,6.0,24.0,199.0,75.0,205.0,22,6,10,1,0.353,0.0,27.0,27.0,17.0,17.0,200.0,200.0,195.0,195.0,118.0,118.0,0.0,0.0,0.0,0.0,37.0,37.0,17.0,17.0,0.0,0.0,200.0,200.0,6.0,6.0,518.0,518.0,0.0,0.0,0.0,0.0,0.0,7.41,11.76,0.0,0.0,0.0,11.76,0.0,33.33,0.0,33.33,6.17,1.0,9.0,19378.0,20160199.0,2016.0,74.63,205.0,9.586666666666668,38677.0,75.0,214.0,32.67433333333334,4.47,31.5,14.0,4.243622902270483,119.0,6.9371444695259585,11.728636363636362,19.495495495495497
118,Cody Hollister,2019,2.0,2.0,2.0,13.0,10.0,3.0,0.0,0.0,3.3,0.002,0.003,0.0,6.5,6.5,0.0,0.0,2.0,0.0,0.0,13.0,6.5,1.0,0.0,13.0,0.0,13.0,3.3,0.0,0.033,30,0.001,2017.0,8.0,48.0,263.0,76.0,220.0,26,9,7,0,0.562,2.0,2.0,1.0,2.0,1.0,13.0,6.5,10.0,5.0,3.0,1.5,0.0,0.0,0.0,0.0,3.299999952316284,1.649999976158142,2.0,1.0,0.0,0.0,13.0,6.5,1.0,0.5,30.0,15.0,0.0,0.0,0.0,0.0,0.0,6.5,6.5,0.0,0.0,0.0,6.5,0.0,13.0,0.0,13.0,3.3,4.0,4.0,17709.69645390071,20112021.9964539,2011.186524822695,72.68675177304964,207.25886524822695,9.586666666666668,52200.00992907801,72.80425531914894,207.31560283687944,32.67433333333334,4.5200463320463315,35.373366013071895,15.492,4.243622902270483,120.43132328308208,6.9371444695259585,11.728636363636362,19.495495495495497
119,Cody Latimer,2014,2.0,4.0,2.0,23.0,45.0,16.0,0.0,0.0,4.3,0.009,0.007,0.0,5.75,11.5,0.0,0.0,2.0,0.0,0.0,23.0,11.5,3.0,0.0,7.67,0.0,7.67,1.43,0.0,0.08,83,0.002,2014.0,2.0,24.0,56.0,73.0,222.0,22,12,4,0,0.75,0.0,4.0,4.0,2.0,2.0,23.0,23.0,45.0,45.0,16.0,16.0,0.0,0.0,0.0,0.0,4.300000190734863,4.300000190734863,2.0,2.0,0.0,0.0,23.0,23.0,3.0,3.0,83.0,83.0,0.0,0.0,0.0,0.0,0.0,5.75,11.5,0.0,0.0,0.0,11.5,0.0,7.67,0.0,7.67,1.43,3.0,3.0,18425.0,20140056.0,2014.0,74.5,215.0,9.586666666666668,47405.0,74.0,215.0,32.67433333333334,4.52,35.373366013071895,23.0,4.243622902270483,120.43132328308208,6.9371444695259585,11.728636363636362,19.495495495495497
120,Cody Thompson,2023,2.0,1.0,1.0,10.0,6.0,4.0,0.0,0.0,2.0,0.001,0.002,0.0,10.0,10.0,0.0,0.0,1.0,0.0,0.0,10.0,10.0,1.0,0.0,10.0,0.0,10.0,2.0,0.0,0.058,57,0.001,2019.0,8.0,48.0,263.0,74.0,205.0,27,9,8,0,0.529,4.0,1.0,0.25,1.0,0.25,10.0,2.5,6.0,1.5,4.0,1.0,0.0,0.0,0.0,0.0,2.0,0.5,1.0,0.25,0.0,0.0,10.0,2.5,1.0,0.25,57.0,14.25,0.0,0.0,0.0,0.0,0.0,10.0,10.0,0.0,0.0,0.0,10.0,0.0,10.0,0.0,10.0,2.0,2.0,17.0,17709.69645390071,20112021.9964539,2011.186524822695,72.68675177304964,207.25886524822695,9.586666666666668,52200.00992907801,72.80425531914894,207.31560283687944,32.67433333333334,4.5200463320463315,35.373366013071895,15.492,4.243622902270483,120.43132328308208,6.9371444695259585,11.728636363636362,19.495495495495497
121,Cody White,2021,2.0,6.0,5.0,33.0,38.0,14.0,0.0,0.0,8.3,0.008,0.01,0.0,5.5,6.6,0.0,0.0,5.0,0.0,0.0,33.0,6.6,3.0,0.0,11.0,0.0,11.0,2.77,0.0,0.132,145,0.004,2020.0,8.0,48.0,263.0,75.0,215.0,23,9,8,1,0.5,1.0,6.0,6.0,5.0,5.0,33.0,33.0,38.0,38.0,14.0,14.0,0.0,0.0,0.0,0.0,8.300000190734863,8.300000190734863,5.0,5.0,0.0,0.0,33.0,33.0,3.0,3.0,145.0,145.0,0.0,0.0,0.0,0.0,0.0,5.5,6.6,0.0,0.0,0.0,6.6,0.0,11.0,0.0,11.0,2.77,2.0,17.0,17709.69645390071,20112021.9964539,2011.186524822695,72.68675177304964,207.25886524822695,9.586666666666668,52200.00992907801,72.80425531914894,207.31560283687944,32.67433333333334,4.5200463320463315,35.373366013071895,15.492,4.243622902270483,120.43132328308208,6.9371444695259585,11.728636363636362,19.495495495495497
122,Cole Beasley,2012,3.0,24.0,15.0,128.0,125.0,59.0,0.0,0.0,27.8,0.022,0.035,0.0,5.33,8.53,0.0,0.0,15.0,0.0,0.0,128.0,8.53,8.0,0.0,16.0,0.0,16.0,3.47,0.0,0.187,193,0.012,2012.0,8.0,48.0,263.0,68.0,174.0,23,8,8,0,0.5,0.0,24.0,24.0,15.0,15.0,128.0,128.0,125.0,125.0,59.0,59.0,0.0,0.0,0.0,0.0,27.799999237060547,27.799999237060547,15.0,15.0,0.0,0.0,128.0,128.0,8.0,8.0,193.0,193.0,0.0,0.0,0.0,0.0,0.0,5.33,8.53,0.0,0.0,0.0,8.53,0.0,16.0,0.0,16.0,3.47,1.0,1.0,17709.69645390071,20112021.9964539,2011.186524822695,72.68675177304964,207.25886524822695,9.586666666666668,52200.00992907801,72.80425531914894,207.31560283687944,32.67433333333334,4.5200463320463315,35.373366013071895,15.492,4.243622902270483,120.43132328308208,6.9371444695259585,11.728636363636362,19.495495495495497
123,Collin Johnson,2020,2.0,33.0,18.0,274.0,375.0,65.0,2.0,0.0,57.4,0.075,0.052,0.061,8.3,15.22,0.0,0.0,18.0,2.0,0.11,274.0,15.22,10.0,0.0,27.4,0.0,27.4,5.74,0.0,0.254,254,0.03,2020.0,5.0,19.0,165.0,78.0,222.0,23,1,15,0,0.062,0.0,33.0,33.0,18.0,18.0,274.0,274.0,375.0,375.0,65.0,65.0,2.0,2.0,0.0,0.0,57.400001525878906,57.400001525878906,18.0,18.0,2.0,2.0,274.0,274.0,10.0,10.0,254.0,254.0,0.0,0.0,0.0,0.0,0.061,8.3,15.22,0.0,0.0,0.11,15.22,0.0,27.4,0.0,27.4,5.74,3.0,3.0,17709.69645390071,20112021.9964539,2011.186524822695,72.68675177304964,207.25886524822695,9.586666666666668,52200.00992907801,72.80425531914894,207.31560283687944,32.67433333333334,4.5200463320463315,35.373366013071895,15.492,4.243622902270483,120.43132328308208,6.9371444695259585,11.728636363636362,19.495495495495497
124,Colton Dowell,2023,3.0,2.0,1.0,3.0,40.0,0.0,0.0,0.0,1.3,0.008,0.003,0.0,1.5,3.0,0.0,0.0,1.0,0.0,0.0,3.0,3.0,1.0,0.0,3.0,0.0,3.0,1.3,0.0,0.098,96,0.0,2023.0,7.0,11.0,228.0,75.0,212.0,24,6,11,0,0.353,0.0,2.0,2.0,1.0,1.0,3.0,3.0,40.0,40.0,0.0,0.0,0.0,0.0,0.0,0.0,1.2999999523162842,1.2999999523162842,1.0,1.0,0.0,0.0,3.0,3.0,1.0,1.0,96.0,96.0,0.0,0.0,0.0,0.0,0.0,1.5,3.0,0.0,0.0,0.0,3.0,0.0,3.0,0.0,3.0,1.3,1.0,1.0,17709.69645390071,20112021.9964539,2011.186524822695,72.68675177304964,207.25886524822695,9.586666666666668,52200.00992907801,72.80425531914894,207.31560283687944,32.67433333333334,4.5200463320463315,35.373366013071895,15.492,4.243622902270483,120.43132328308208,6.9371444695259585,11.728636363636362,19.495495495495497
125,Cooper Kupp,2017,2.0,94.0,62.0,882.0,808.0,364.0,5.0,1.0,177.2,0.177,0.16,0.053,9.38,14.23,0.0,0.0,63.0,5.0,0.08,882.0,14.0,15.0,0.0,58.8,0.0,58.8,11.81,2.08,0.759,743,0.09,2017.0,3.0,5.0,69.0,74.0,207.0,24,11,5,0,0.688,0.0,94.0,94.0,62.0,62.0,882.0,882.0,808.0,808.0,364.0,364.0,5.0,5.0,1.0,1.0,177.1999969482422,177.1999969482422,63.0,63.0,5.0,5.0,882.0,882.0,15.0,15.0,743.0,743.0,0.0,0.0,0.0,0.0,0.053,9.38,14.23,0.0,0.0,0.08,14.0,0.0,58.8,0.0,58.8,11.81,1.0,1.0,19799.0,20170069.0,2017.0,73.75,204.0,9.586666666666668,99004.0,74.0,205.0,32.67433333333334,4.62,31.0,15.492,4.08,116.0,6.75,11.728636363636362,37.0
126,Corey Brown,2014,2.0,36.0,21.0,296.0,517.0,52.0,2.0,0.0,72.1,0.113,0.069,0.056,8.22,14.1,0.0,11.88,29.0,2.0,0.07,391.0,13.48,11.0,0.0,26.91,8.64,35.55,6.55,0.0,0.341,358,0.042,2014.0,8.0,48.0,263.0,71.0,190.0,23,7,9,1,0.412,0.0,36.0,36.0,21.0,21.0,296.0,296.0,517.0,517.0,52.0,52.0,2.0,2.0,0.0,0.0,72.0999984741211,72.0999984741211,29.0,29.0,2.0,2.0,391.0,391.0,11.0,11.0,358.0,358.0,0.0,0.0,0.0,0.0,0.056,8.22,14.1,0.0,11.88,0.07,13.48,0.0,26.91,8.64,35.55,6.55,7.0,7.0,18300.0,20140463.0,2014.0,71.38,178.0,9.586666666666668,43210.0,71.0,190.0,32.67433333333334,4.51,33.0,15.492,4.22,115.0,7.16,11.728636363636362,19.495495495495497
127,Corey Coleman,2016,2.0,73.0,33.0,413.0,1014.0,97.0,3.0,0.0,93.3,0.238,0.121,0.041,5.66,12.52,0.0,5.0,35.0,3.0,0.09,423.0,12.09,10.0,0.0,41.3,1.0,42.3,9.33,0.0,0.877,862,0.049,2016.0,1.0,15.0,15.0,71.0,185.0,22,1,15,0,0.062,0.0,73.0,73.0,33.0,33.0,413.0,413.0,1014.0,1014.0,97.0,97.0,3.0,3.0,0.0,0.0,93.3000030517578,93.3000030517578,35.0,35.0,3.0,3.0,423.0,423.0,10.0,10.0,862.0,862.0,0.0,0.0,0.0,0.0,0.041,5.66,12.52,0.0,5.0,0.09,12.09,0.0,41.3,1.0,42.3,9.33,6.0,6.0,19369.0,20160015.0,2016.0,70.63,194.0,9.586666666666668,76706.0,71.0,185.0,32.67433333333334,4.5200463320463315,40.5,17.0,4.243622902270483,129.0,6.9371444695259585,11.728636363636362,19.495495495495497
128,Corey Davis,2017,1.0,65.0,34.0,375.0,745.0,101.0,0.0,1.0,68.5,0.156,0.112,0.0,5.77,11.03,0.0,0.0,34.0,0.0,0.0,375.0,11.03,11.0,0.0,34.09,0.0,34.09,6.23,0.0,0.731,701,0.044,2017.0,1.0,5.0,5.0,75.0,209.0,22,9,7,0,0.562,0.0,65.0,65.0,34.0,34.0,375.0,375.0,745.0,745.0,101.0,101.0,0.0,0.0,1.0,1.0,68.5,68.5,34.0,34.0,0.0,0.0,375.0,375.0,11.0,11.0,701.0,701.0,0.0,0.0,0.0,0.0,0.0,5.77,11.03,0.0,0.0,0.0,11.03,0.0,34.09,0.0,34.09,6.23,5.0,5.0,19696.0,20170005.0,2017.0,74.75,209.0,9.586666666666668,49008.0,75.0,209.0,32.67433333333334,4.5200463320463315,35.373366013071895,15.492,4.28,120.43132328308208,6.9371444695259585,11.728636363636362,31.0
129,Corey Washington,2014,2.0,8.0,5.0,52.0,64.0,14.0,1.0,0.0,16.2,0.012,0.014,0.125,6.5,10.4,0.0,0.0,5.0,1.0,0.2,52.0,10.4,3.0,0.0,17.33,0.0,17.33,5.4,0.0,0.075,80,0.005,2014.0,8.0,48.0,263.0,76.0,214.0,23,6,10,0,0.375,0.0,8.0,8.0,5.0,5.0,52.0,52.0,64.0,64.0,14.0,14.0,1.0,1.0,0.0,0.0,16.200000762939453,16.200000762939453,5.0,5.0,1.0,1.0,52.0,52.0,3.0,3.0,80.0,80.0,0.0,0.0,0.0,0.0,0.125,6.5,10.4,0.0,0.0,0.2,10.4,0.0,17.33,0.0,17.33,5.4,1.0,1.0,17709.69645390071,20112021.9964539,2011.186524822695,72.68675177304964,207.25886524822695,9.586666666666668,52200.00992907801,72.80425531914894,207.31560283687944,32.67433333333334,4.5200463320463315,35.373366013071895,15.492,4.243622902270483,120.43132328308208,6.9371444695259585,11.728636363636362,19.495495495495497
130,Courtland Sutton,2018,2.0,85.0,42.0,715.0,1178.0,163.0,4.0,0.0,137.4,0.242,0.14,0.047,8.41,17.02,0.0,-1.0,43.0,4.0,0.09,714.0,16.6,16.0,0.0,44.69,-0.06,44.62,8.59,0.0,0.762,767,0.075,2018.0,2.0,8.0,40.0,76.0,216.0,23,6,10,0,0.375,0.0,85.0,85.0,42.0,42.0,715.0,715.0,1178.0,1178.0,163.0,163.0,4.0,4.0,0.0,0.0,137.39999389648438,137.39999389648438,43.0,43.0,4.0,4.0,714.0,714.0,16.0,16.0,767.0,767.0,0.0,0.0,0.0,0.0,0.047,8.41,17.02,0.0,-1.0,0.09,16.6,0.0,44.69,-0.06,44.62,8.59,1.0,1.0,17709.69645390071,20112021.9964539,2011.186524822695,72.68675177304964,207.25886524822695,9.586666666666668,52200.00992907801,72.80425531914894,207.31560283687944,32.67433333333334,4.5200463320463315,35.373366013071895,15.492,4.243622902270483,120.43132328308208,6.9371444695259585,11.728636363636362,19.495495495495497
131,Curtis Samuel,2017,2.0,26.0,15.0,115.0,256.0,41.0,0.0,0.0,32.9,0.056,0.05,0.0,4.42,7.67,0.0,16.0,19.0,0.0,0.0,179.0,9.42,8.0,0.0,14.38,8.0,22.38,4.11,0.0,0.37,373,0.021,2017.0,2.0,8.0,40.0,71.0,195.0,21,11,5,0,0.688,0.0,26.0,26.0,15.0,15.0,115.0,115.0,256.0,256.0,41.0,41.0,0.0,0.0,0.0,0.0,32.900001525878906,32.900001525878906,19.0,19.0,0.0,0.0,179.0,179.0,8.0,8.0,373.0,373.0,0.0,0.0,0.0,0.0,0.0,4.42,7.67,0.0,16.0,0.0,9.42,0.0,14.38,8.0,22.38,4.11,2.0,2.0,19894.0,20170040.0,2017.0,71.0,196.0,9.586666666666668,43210.0,71.0,195.0,32.67433333333334,4.31,37.0,18.0,4.33,119.0,7.09,11.728636363636362,22.0
132,Cyril Grayson,2019,3.0,1.0,1.0,3.0,2.0,1.0,0.0,0.0,1.3,0.0,0.002,0.0,3.0,3.0,0.0,0.0,1.0,0.0,0.0,3.0,3.0,1.0,0.0,3.0,0.0,3.0,1.3,0.0,0.06,64,0.0,2017.0,8.0,48.0,263.0,71.0,178.0,26,7,9,0,0.438,2.0,1.0,0.5,1.0,0.5,3.0,1.5,2.0,1.0,1.0,0.5,0.0,0.0,0.0,0.0,1.2999999523162842,0.6499999761581421,1.0,0.5,0.0,0.0,3.0,1.5,1.0,0.5,64.0,32.0,0.0,0.0,0.0,0.0,0.0,3.0,3.0,0.0,0.0,0.0,3.0,0.0,3.0,0.0,3.0,1.3,4.0,26.0,17709.69645390071,20112021.9964539,2011.186524822695,72.68675177304964,207.25886524822695,9.586666666666668,52200.00992907801,72.80425531914894,207.31560283687944,32.67433333333334,4.5200463320463315,35.373366013071895,15.492,4.243622902270483,120.43132328308208,6.9371444695259585,11.728636363636362,19.495495495495497
133,D'Wayne Eskridge,2021,2.0,20.0,10.0,64.0,252.0,32.0,1.0,0.0,28.3,0.062,0.046,0.05,3.2,6.4,0.0,14.75,14.0,1.0,0.07,123.0,8.79,8.0,0.0,8.0,7.38,15.38,3.54,0.0,0.317,300,0.013,2021.0,2.0,24.0,56.0,69.0,190.0,24,7,10,0,0.412,0.0,20.0,20.0,10.0,10.0,64.0,64.0,252.0,252.0,32.0,32.0,1.0,1.0,0.0,0.0,28.299999237060547,28.299999237060547,14.0,14.0,1.0,1.0,123.0,123.0,8.0,8.0,300.0,300.0,0.0,0.0,0.0,0.0,0.05,3.2,6.4,0.0,14.75,0.07,8.79,0.0,8.0,7.38,15.38,3.54,4.0,4.0,17709.69645390071,20112021.9964539,2011.186524822695,72.68675177304964,207.25886524822695,9.586666666666668,52200.00992907801,72.80425531914894,207.31560283687944,32.67433333333334,4.5200463320463315,35.373366013071895,15.492,4.243622902270483,120.43132328308208,6.9371444695259585,11.728636363636362,19.495495495495497
134,D.J. Chark,2018,2.0,32.0,14.0,174.0,314.0,45.0,0.0,1.0,28.4,0.063,0.05,0.0,5.44,12.43,0.0,0.0,14.0,0.0,0.0,174.0,12.43,10.0,0.0,17.4,0.0,17.4,2.84,0.0,0.394,394,0.021,2018.0,2.0,29.0,61.0,75.0,200.0,22,5,11,0,0.312,0.0,32.0,32.0,14.0,14.0,174.0,174.0,314.0,314.0,45.0,45.0,0.0,0.0,1.0,1.0,28.399999618530277,28.399999618530277,14.0,14.0,0.0,0.0,174.0,174.0,10.0,10.0,394.0,394.0,0.0,0.0,0.0,0.0,0.0,5.44,12.43,0.0,0.0,0.0,12.43,0.0,17.4,0.0,17.4,2.84,5.0,5.0,19999.0,20180061.0,2018.0,75.0,199.0,9.586666666666668,70803.0,76.0,198.0,32.67433333333334,4.34,40.0,16.0,4.243622902270483,129.0,6.9371444695259585,11.728636363636362,19.495495495495497
135,D.J. Montgomery,2021,3.0,6.0,3.0,36.0,39.0,15.0,0.0,0.0,6.6,0.009,0.011,0.0,6.0,12.0,0.0,0.0,3.0,0.0,0.0,36.0,12.0,1.0,0.0,36.0,0.0,36.0,6.6,0.0,0.26,269,0.004,2019.0,8.0,48.0,263.0,73.0,201.0,25,4,13,0,0.235,2.0,6.0,3.0,3.0,1.5,36.0,18.0,39.0,19.5,15.0,7.5,0.0,0.0,0.0,0.0,6.599999904632568,3.299999952316284,3.0,1.5,0.0,0.0,36.0,18.0,1.0,0.5,269.0,134.5,0.0,0.0,0.0,0.0,0.0,6.0,12.0,0.0,0.0,0.0,12.0,0.0,36.0,0.0,36.0,6.6,4.0,18.0,17709.69645390071,20112021.9964539,2011.186524822695,72.68675177304964,207.25886524822695,9.586666666666668,52200.00992907801,72.80425531914894,207.31560283687944,32.67433333333334,4.5200463320463315,35.373366013071895,15.492,4.243622902270483,120.43132328308208,6.9371444695259585,11.728636363636362,19.495495495495497
136,D.J. Moore,2018,2.0,82.0,55.0,788.0,737.0,421.0,2.0,1.0,157.0,0.162,0.156,0.024,9.61,14.33,0.0,13.23,68.0,2.0,0.03,960.0,14.12,16.0,0.0,49.25,10.75,60.0,9.81,0.0,0.689,687,0.095,2018.0,1.0,24.0,24.0,71.0,210.0,21,7,9,0,0.438,0.0,82.0,82.0,55.0,55.0,788.0,788.0,737.0,737.0,421.0,421.0,2.0,2.0,1.0,1.0,157.0,157.0,68.0,68.0,2.0,2.0,960.0,960.0,16.0,16.0,687.0,687.0,0.0,0.0,0.0,0.0,0.024,9.61,14.33,0.0,13.23,0.03,14.12,0.0,49.25,10.75,60.0,9.81,1.0,1.0,16958.0,20090119.0,2009.0,68.88,192.0,9.586666666666668,37240.0,69.0,190.0,32.67433333333334,4.56,39.5,17.0,4.28,118.0,7.01,11.728636363636362,19.495495495495497
137,D.J. Turner,2022,2.0,1.0,0.0,0.0,-3.0,0.0,0.0,0.0,2.6,0.001,0.002,0.0,0.0,0.0,0.0,6.5,4.0,0.0,0.0,26.0,6.5,2.0,0.0,0.0,13.0,13.0,1.3,0.0,0.06,62,0.003,2021.0,8.0,48.0,263.0,69.0,205.0,25,6,11,0,0.353,1.0,1.0,1.0,0.0,0.0,0.0,0.0,-3.0,-3.0,0.0,0.0,0.0,0.0,0.0,0.0,2.5999999046325684,2.5999999046325684,4.0,4.0,0.0,0.0,26.0,26.0,2.0,2.0,62.0,62.0,0.0,0.0,0.0,0.0,0.0,0.0,0.0,0.0,6.5,0.0,6.5,0.0,0.0,13.0,13.0,1.3,1.0,1.0,17709.69645390071,20112021.9964539,2011.186524822695,72.68675177304964,207.25886524822695,9.586666666666668,52200.00992907801,72.80425531914894,207.31560283687944,32.67433333333334,4.5200463320463315,35.373366013071895,15.492,4.243622902270483,120.43132328308208,6.9371444695259585,11.728636363636362,19.495495495495497
138,DK Metcalf,2019,1.0,102.0,58.0,902.0,1293.0,276.0,8.0,3.0,188.3,0.318,0.233,0.078,8.84,15.55,0.0,5.5,60.0,8.0,0.13,913.0,15.22,16.0,0.0,56.38,0.69,57.06,11.77,0.0,0.838,863,0.09,2019.0,2.0,32.0,64.0,76.0,235.0,22,11,5,0,0.688,0.0,102.0,102.0,58.0,58.0,902.0,902.0,1293.0,1293.0,276.0,276.0,8.0,8.0,3.0,3.0,188.3000030517578,188.3000030517578,60.0,60.0,8.0,8.0,913.0,913.0,16.0,16.0,863.0,863.0,0.0,0.0,0.0,0.0,0.078,8.84,15.55,0.0,5.5,0.13,15.22,0.0,56.38,0.69,57.06,11.77,3.0,3.0,17709.69645390071,20112021.9964539,2011.186524822695,72.68675177304964,207.25886524822695,9.586666666666668,52200.00992907801,72.80425531914894,207.31560283687944,32.67433333333334,4.5200463320463315,35.373366013071895,15.492,4.243622902270483,120.43132328308208,6.9371444695259585,11.728636363636362,19.495495495495497
139,Da'Mari Scott,2019,3.0,3.0,2.0,22.0,19.0,14.0,0.0,0.0,4.7,0.004,0.005,0.0,7.33,11.0,0.0,5.0,3.0,0.0,0.0,27.0,9.0,2.0,0.0,11.0,2.5,13.5,2.35,0.0,0.152,153,0.003,2018.0,8.0,48.0,263.0,72.0,205.0,24,4,12,0,0.25,1.0,3.0,3.0,2.0,2.0,22.0,22.0,19.0,19.0,14.0,14.0,0.0,0.0,0.0,0.0,4.699999809265137,4.699999809265137,3.0,3.0,0.0,0.0,27.0,27.0,2.0,2.0,153.0,153.0,0.0,0.0,0.0,0.0,0.0,7.33,11.0,0.0,5.0,0.0,9.0,0.0,11.0,2.5,13.5,2.35,3.0,5.0,17709.69645390071,20112021.9964539,2011.186524822695,72.68675177304964,207.25886524822695,9.586666666666668,52200.00992907801,72.80425531914894,207.31560283687944,32.67433333333334,4.5200463320463315,35.373366013071895,15.492,4.243622902270483,120.43132328308208,6.9371444695259585,11.728636363636362,19.495495495495497
140,Da'Rick Rogers,2013,2.0,23.0,14.0,192.0,245.0,117.0,2.0,0.0,45.2,0.038,0.035,0.087,8.35,13.71,0.0,0.0,15.0,2.0,0.13,192.0,12.8,4.0,0.0,48.0,0.0,48.0,11.3,0.0,0.598,605,0.02,2013.0,8.0,48.0,263.0,75.0,215.0,22,11,5,0,0.688,0.0,23.0,23.0,14.0,14.0,192.0,192.0,245.0,245.0,117.0,117.0,2.0,2.0,0.0,0.0,45.20000076293945,45.20000076293945,15.0,15.0,2.0,2.0,192.0,192.0,4.0,4.0,605.0,605.0,0.0,0.0,0.0,0.0,0.087,8.35,13.71,0.0,0.0,0.13,12.8,0.0,48.0,0.0,48.0,11.3,1.0,5.0,18187.0,20130630.0,2013.0,74.5,217.0,9.586666666666668,38505.0,75.0,208.0,32.67433333333334,4.52,39.5,10.0,4.06,132.0,6.71,11.728636363636362,19.495495495495497
141,DaeSean Hamilton,2018,2.0,46.0,30.0,243.0,397.0,67.0,2.0,0.0,66.3,0.082,0.076,0.043,5.28,8.1,0.0,0.0,30.0,2.0,0.07,243.0,8.1,8.0,0.0,30.38,0.0,30.38,8.29,0.0,0.488,491,0.025,2018.0,4.0,13.0,113.0,73.0,206.0,23,6,10,0,0.375,0.0,46.0,46.0,30.0,30.0,243.0,243.0,397.0,397.0,67.0,67.0,2.0,2.0,0.0,0.0,66.30000305175781,66.30000305175781,30.0,30.0,2.0,2.0,243.0,243.0,8.0,8.0,491.0,491.0,0.0,0.0,0.0,0.0,0.043,5.28,8.1,0.0,0.0,0.07,8.1,0.0,30.38,0.0,30.38,8.29,2.0,2.0,20063.0,20180113.0,2018.0,73.0,203.0,9.586666666666668,16802.0,73.0,203.0,32.67433333333334,4.5200463320463315,34.5,15.492,4.15,118.0,6.84,11.728636363636362,19.495495495495497
142,Damian Williams,2012,2.0,45.0,30.0,324.0,422.0,75.0,2.0,0.0,74.4,0.088,0.078,0.044,7.2,10.8,0.0,0.0,30.0,2.0,0.07,324.0,10.8,13.0,0.0,24.92,0.0,24.92,5.72,0.0,0.478,454,0.038,2010.0,3.0,13.0,77.0,73.0,200.0,24,6,10,0,0.375,2.0,45.0,22.5,30.0,15.0,324.0,162.0,422.0,211.0,75.0,37.5,2.0,1.0,0.0,0.0,74.4000015258789,37.20000076293945,30.0,15.0,2.0,1.0,324.0,162.0,13.0,6.5,454.0,227.0,0.0,0.0,0.0,0.0,0.044,7.2,10.8,0.0,0.0,0.07,10.8,0.0,24.92,0.0,24.92,5.72,5.0,5.0,17326.0,20100077.0,2010.0,72.63,197.0,9.586666666666668,90089.0,73.0,193.0,32.67433333333334,4.52,38.0,19.0,4.24,118.0,6.79,11.728636363636362,19.495495495495497
143,Damiere Byrd,2016,1.0,1.0,1.0,16.0,13.0,3.0,0.0,0.0,2.6,0.003,0.002,0.0,16.0,16.0,0.0,0.0,1.0,0.0,0.0,16.0,16.0,1.0,0.0,16.0,0.0,16.0,2.6,0.0,0.16,167,0.002,2015.0,8.0,48.0,263.0,69.0,175.0,23,6,10,0,0.375,1.0,1.0,1.0,1.0,1.0,16.0,16.0,13.0,13.0,3.0,3.0,0.0,0.0,0.0,0.0,2.5999999046325684,2.5999999046325684,1.0,1.0,0.0,0.0,16.0,16.0,1.0,1.0,167.0,167.0,0.0,0.0,0.0,0.0,0.0,16.0,16.0,0.0,0.0,0.0,16.0,0.0,16.0,0.0,16.0,2.6,1.0,24.0,17709.69645390071,20112021.9964539,2011.186524822695,72.68675177304964,207.25886524822695,9.586666666666668,52200.00992907801,72.80425531914894,207.31560283687944,32.67433333333334,4.5200463320463315,35.373366013071895,15.492,4.243622902270483,120.43132328308208,6.9371444695259585,11.728636363636362,19.495495495495497
144,Damion Ratley,2018,2.0,21.0,13.0,144.0,227.0,51.0,0.0,0.0,27.4,0.053,0.035,0.0,6.86,11.08,0.0,0.0,13.0,0.0,0.0,144.0,11.08,5.0,0.0,28.8,0.0,28.8,5.48,0.0,0.231,234,0.014,2018.0,6.0,1.0,175.0,74.0,200.0,23,7,9,1,0.412,0.0,21.0,21.0,13.0,13.0,144.0,144.0,227.0,227.0,51.0,51.0,0.0,0.0,0.0,0.0,27.399999618530277,27.399999618530277,13.0,13.0,0.0,0.0,144.0,144.0,5.0,5.0,234.0,234.0,0.0,0.0,0.0,0.0,0.0,6.86,11.08,0.0,0.0,0.0,11.08,0.0,28.8,0.0,28.8,5.48,3.0,6.0,17709.69645390071,20112021.9964539,2011.186524822695,72.68675177304964,207.25886524822695,9.586666666666668,52200.00992907801,72.80425531914894,207.31560283687944,32.67433333333334,4.5200463320463315,35.373366013071895,15.492,4.243622902270483,120.43132328308208,6.9371444695259585,11.728636363636362,19.495495495495497
145,Damion Willis,2019,2.0,16.0,9.0,82.0,179.0,16.0,0.0,0.0,17.2,0.038,0.027,0.0,5.12,9.11,0.0,0.0,9.0,0.0,0.0,82.0,9.11,7.0,0.0,11.71,0.0,11.71,2.46,0.0,0.322,333,0.009,2019.0,8.0,48.0,263.0,75.0,204.0,22,2,14,0,0.125,0.0,16.0,16.0,9.0,9.0,82.0,82.0,179.0,179.0,16.0,16.0,0.0,0.0,0.0,0.0,17.200000762939453,17.200000762939453,9.0,9.0,0.0,0.0,82.0,82.0,7.0,7.0,333.0,333.0,0.0,0.0,0.0,0.0,0.0,5.12,9.11,0.0,0.0,0.0,9.11,0.0,11.71,0.0,11.71,2.46,3.0,6.0,17709.69645390071,20112021.9964539,2011.186524822695,72.68675177304964,207.25886524822695,9.586666666666668,52200.00992907801,72.80425531914894,207.31560283687944,32.67433333333334,4.5200463320463315,35.373366013071895,15.492,4.243622902270483,120.43132328308208,6.9371444695259585,11.728636363636362,19.495495495495497
146,Daniel Braverman,2016,3.0,2.0,0.0,0.0,22.0,0.0,0.0,0.0,0.0,0.005,0.004,0.0,0.0,0.0,0.0,0.0,0.0,0.0,0.0,0.0,0.0,2.0,0.0,0.0,0.0,0.0,0.0,0.0,0.1,95,0.0,2016.0,7.0,9.0,230.0,70.0,185.0,23,3,13,0,0.188,0.0,2.0,2.0,0.0,0.0,0.0,0.0,22.0,22.0,0.0,0.0,0.0,0.0,0.0,0.0,0.0,0.0,0.0,0.0,0.0,0.0,0.0,0.0,2.0,2.0,95.0,95.0,0.0,0.0,0.0,0.0,0.0,0.0,0.0,0.0,0.0,0.0,0.0,0.0,0.0,0.0,0.0,0.0,2.0,8.0,17709.69645390071,20112021.9964539,2011.186524822695,72.68675177304964,207.25886524822695,9.586666666666668,52200.00992907801,72.80425531914894,207.31560283687944,32.67433333333334,4.5200463320463315,35.373366013071895,15.492,4.243622902270483,120.43132328308208,6.9371444695259585,11.728636363636362,19.495495495495497
147,Danny Amendola,2013,1.0,83.0,54.0,633.0,674.0,252.0,2.0,0.0,129.4,0.122,0.125,0.024,7.63,11.72,0.0,1.0,55.0,2.0,0.04,634.0,11.53,12.0,0.0,52.75,0.08,52.83,10.78,0.0,0.622,696,0.06,2008.0,8.0,48.0,263.0,71.0,185.0,28,12,4,0,0.75,5.0,83.0,16.6,54.0,10.8,633.0,126.6,674.0,134.8,252.0,50.4,2.0,0.4,0.0,0.0,129.39999389648438,25.87999877929688,55.0,11.0,2.0,0.4,634.0,126.8,12.0,2.4,696.0,139.2,0.0,0.0,0.0,0.0,0.024,7.63,11.72,0.0,1.0,0.04,11.53,0.0,52.75,0.08,52.83,10.78,18.0,27.0,17709.69645390071,20112021.9964539,2011.186524822695,72.68675177304964,207.25886524822695,9.586666666666668,52200.00992907801,72.80425531914894,207.31560283687944,32.67433333333334,4.5200463320463315,35.373366013071895,15.492,4.243622902270483,120.43132328308208,6.9371444695259585,11.728636363636362,19.495495495495497
148,Danny Gray,2022,2.0,7.0,1.0,10.0,160.0,4.0,0.0,0.0,2.9,0.042,0.015,0.0,1.43,10.0,0.0,9.0,2.0,0.0,0.0,19.0,9.5,5.0,0.0,2.0,1.8,3.8,0.58,0.0,0.104,107,0.002,2022.0,3.0,41.0,105.0,72.0,200.0,23,13,4,0,0.765,0.0,7.0,7.0,1.0,1.0,10.0,10.0,160.0,160.0,4.0,4.0,0.0,0.0,0.0,0.0,2.900000095367432,2.900000095367432,2.0,2.0,0.0,0.0,19.0,19.0,5.0,5.0,107.0,107.0,0.0,0.0,0.0,0.0,0.0,1.43,10.0,0.0,9.0,0.0,9.5,0.0,2.0,1.8,3.8,0.58,1.0,1.0,17709.69645390071,20112021.9964539,2011.186524822695,72.68675177304964,207.25886524822695,9.586666666666668,52200.00992907801,72.80425531914894,207.31560283687944,32.67433333333334,4.5200463320463315,35.373366013071895,15.492,4.243622902270483,120.43132328308208,6.9371444695259585,11.728636363636362,19.495495495495497
149,Dante Pettis,2018,2.0,45.0,27.0,467.0,501.0,205.0,5.0,0.0,103.5,0.131,0.094,0.111,10.38,17.3,0.0,-2.0,28.0,5.0,0.18,465.0,16.61,9.0,0.0,51.89,-0.22,51.67,11.5,0.0,0.615,610,0.046,2018.0,2.0,12.0,44.0,73.0,195.0,23,4,12,0,0.25,0.0,45.0,45.0,27.0,27.0,467.0,467.0,501.0,501.0,205.0,205.0,5.0,5.0,0.0,0.0,103.5,103.5,28.0,28.0,5.0,5.0,465.0,465.0,9.0,9.0,610.0,610.0,0.0,0.0,0.0,0.0,0.111,10.38,17.3,0.0,-2.0,0.18,16.61,0.0,51.89,-0.22,51.67,11.5,5.0,5.0,20160.0,20180044.0,2018.0,72.0,186.0,9.586666666666668,98195.0,73.0,195.0,32.67433333333334,4.5200463320463315,35.373366013071895,15.492,4.243622902270483,120.43132328308208,6.9371444695259585,11.728636363636362,19.495495495495497
150,Dareke Young,2022,3.0,2.0,2.0,24.0,1.0,23.0,0.0,0.0,4.4,0.0,0.005,0.0,12.0,12.0,0.0,0.0,2.0,0.0,0.0,24.0,12.0,1.0,0.0,24.0,0.0,24.0,4.4,0.0,0.122,126,0.002,2022.0,7.0,12.0,233.0,74.0,224.0,23,9,8,0,0.529,0.0,2.0,2.0,2.0,2.0,24.0,24.0,1.0,1.0,23.0,23.0,0.0,0.0,0.0,0.0,4.400000095367432,4.400000095367432,2.0,2.0,0.0,0.0,24.0,24.0,1.0,1.0,126.0,126.0,0.0,0.0,0.0,0.0,0.0,12.0,12.0,0.0,0.0,0.0,12.0,0.0,24.0,0.0,24.0,4.4,1.0,1.0,17709.69645390071,20112021.9964539,2011.186524822695,72.68675177304964,207.25886524822695,9.586666666666668,52200.00992907801,72.80425531914894,207.31560283687944,32.67433333333334,4.5200463320463315,35.373366013071895,15.492,4.243622902270483,120.43132328308208,6.9371444695259585,11.728636363636362,19.495495495495497
151,Darius Jennings,2015,3.0,21.0,14.0,117.0,139.0,37.0,0.0,0.0,25.7,0.033,0.035,0.0,5.57,8.36,0.0,0.0,14.0,0.0,0.0,117.0,8.36,3.0,0.0,39.0,0.0,39.0,8.57,0.0,0.695,722,0.012,2015.0,8.0,48.0,263.0,70.0,180.0,23,3,13,0,0.188,0.0,21.0,21.0,14.0,14.0,117.0,117.0,139.0,139.0,37.0,37.0,0.0,0.0,0.0,0.0,25.700000762939453,25.700000762939453,14.0,14.0,0.0,0.0,117.0,117.0,3.0,3.0,722.0,722.0,0.0,0.0,0.0,0.0,0.0,5.57,8.36,0.0,0.0,0.0,8.36,0.0,39.0,0.0,39.0,8.57,1.0,1.0,17709.69645390071,20112021.9964539,2011.186524822695,72.68675177304964,207.25886524822695,9.586666666666668,52200.00992907801,72.80425531914894,207.31560283687944,32.67433333333334,4.5200463320463315,35.373366013071895,15.492,4.243622902270483,120.43132328308208,6.9371444695259585,11.728636363636362,19.495495495495497
152,Darius Slayton,2019,2.0,85.0,48.0,746.0,1178.0,192.0,8.0,1.0,167.6,0.23,0.152,0.094,8.78,15.54,0.0,0.0,48.0,8.0,0.17,746.0,15.54,14.0,0.0,53.29,0.0,53.29,11.97,0.0,0.759,767,0.079,2019.0,5.0,33.0,171.0,73.0,198.0,22,4,12,0,0.25,0.0,85.0,85.0,48.0,48.0,746.0,746.0,1178.0,1178.0,192.0,192.0,8.0,8.0,1.0,1.0,167.60000610351562,167.60000610351562,48.0,48.0,8.0,8.0,746.0,746.0,14.0,14.0,767.0,767.0,0.0,0.0,0.0,0.0,0.094,8.78,15.54,0.0,0.0,0.17,15.54,0.0,53.29,0.0,53.29,11.97,2.0,2.0,17709.69645390071,20112021.9964539,2011.186524822695,72.68675177304964,207.25886524822695,9.586666666666668,52200.00992907801,72.80425531914894,207.31560283687944,32.67433333333334,4.5200463320463315,35.373366013071895,15.492,4.243622902270483,120.43132328308208,6.9371444695259585,11.728636363636362,19.495495495495497
153,Darnell Mooney,2020,2.0,99.0,61.0,633.0,1128.0,254.0,4.0,0.0,150.3,0.234,0.187,0.04,6.39,10.38,0.0,5.0,65.0,4.0,0.06,653.0,10.05,16.0,0.0,39.56,1.25,40.81,9.39,0.0,0.732,756,0.071,2020.0,5.0,27.0,173.0,71.0,177.0,23,8,8,0,0.5,0.0,99.0,99.0,61.0,61.0,633.0,633.0,1128.0,1128.0,254.0,254.0,4.0,4.0,0.0,0.0,150.3000030517578,150.3000030517578,65.0,65.0,4.0,4.0,653.0,653.0,16.0,16.0,756.0,756.0,0.0,0.0,0.0,0.0,0.04,6.39,10.38,0.0,5.0,0.06,10.05,0.0,39.56,1.25,40.81,9.39,3.0,3.0,17709.69645390071,20112021.9964539,2011.186524822695,72.68675177304964,207.25886524822695,9.586666666666668,52200.00992907801,72.80425531914894,207.31560283687944,32.67433333333334,4.5200463320463315,35.373366013071895,15.492,4.243622902270483,120.43132328308208,6.9371444695259585,11.728636363636362,19.495495495495497
154,Darrius Heyward-Bey,2013,1.0,66.0,29.0,311.0,658.0,124.0,1.0,0.0,68.7,0.103,0.1,0.015,4.71,10.72,0.0,8.67,32.0,1.0,0.03,337.0,10.53,13.0,0.0,23.92,2.0,25.92,5.28,0.0,0.571,577,0.036,2009.0,1.0,7.0,7.0,74.0,210.0,26,11,5,0,0.688,4.0,66.0,16.5,29.0,7.25,311.0,77.75,658.0,164.5,124.0,31.0,1.0,0.25,0.0,0.0,68.69999694824219,17.174999237060547,32.0,8.0,1.0,0.25,337.0,84.25,13.0,3.25,577.0,144.25,0.0,0.0,0.0,0.0,0.015,4.71,10.72,0.0,8.67,0.03,10.53,0.0,23.92,2.0,25.92,5.28,6.0,10.0,16885.0,20090007.0,2009.0,73.63,210.0,9.586666666666668,20740.0,74.0,210.0,32.67433333333334,4.25,38.5,16.0,4.18,126.0,6.8,11.728636363636362,19.495495495495497
155,Darrius Shepherd,2019,2.0,2.0,1.0,1.0,8.0,3.0,0.0,0.0,1.1,0.002,0.003,0.0,0.5,1.0,0.0,0.0,1.0,0.0,0.0,1.0,1.0,1.0,0.0,1.0,0.0,1.0,1.1,0.0,0.146,145,0.0,2019.0,8.0,48.0,263.0,71.0,186.0,24,13,3,0,0.812,0.0,2.0,2.0,1.0,1.0,1.0,1.0,8.0,8.0,3.0,3.0,0.0,0.0,0.0,0.0,1.100000023841858,1.100000023841858,1.0,1.0,0.0,0.0,1.0,1.0,1.0,1.0,145.0,145.0,0.0,0.0,0.0,0.0,0.0,0.5,1.0,0.0,0.0,0.0,1.0,0.0,1.0,0.0,1.0,1.1,3.0,3.0,17709.69645390071,20112021.9964539,2011.186524822695,72.68675177304964,207.25886524822695,9.586666666666668,52200.00992907801,72.80425531914894,207.31560283687944,32.67433333333334,4.5200463320463315,35.373366013071895,15.492,4.243622902270483,120.43132328308208,6.9371444695259585,11.728636363636362,19.495495495495497
156,Darvin Kidsy,2018,2.0,2.0,1.0,8.0,18.0,2.0,0.0,0.0,1.8,0.005,0.004,0.0,4.0,8.0,0.0,0.0,1.0,0.0,0.0,8.0,8.0,1.0,0.0,8.0,0.0,8.0,1.8,0.0,0.135,129,0.001,2018.0,8.0,48.0,263.0,72.0,180.0,23,7,9,0,0.438,0.0,2.0,2.0,1.0,1.0,8.0,8.0,18.0,18.0,2.0,2.0,0.0,0.0,0.0,0.0,1.7999999523162842,1.7999999523162842,1.0,1.0,0.0,0.0,8.0,8.0,1.0,1.0,129.0,129.0,0.0,0.0,0.0,0.0,0.0,4.0,8.0,0.0,0.0,0.0,8.0,0.0,8.0,0.0,8.0,1.8,2.0,2.0,17709.69645390071,20112021.9964539,2011.186524822695,72.68675177304964,207.25886524822695,9.586666666666668,52200.00992907801,72.80425531914894,207.31560283687944,32.67433333333334,4.5200463320463315,35.373366013071895,15.492,4.243622902270483,120.43132328308208,6.9371444695259585,11.728636363636362,19.495495495495497
157,Daurice Fountain,2020,2.0,3.0,2.0,23.0,28.0,0.0,0.0,0.0,4.3,0.004,0.005,0.0,7.67,11.5,0.0,0.0,2.0,0.0,0.0,23.0,11.5,2.0,0.0,11.5,0.0,11.5,2.15,0.0,0.194,196,0.002,2018.0,5.0,22.0,159.0,74.0,210.0,25,11,5,0,0.688,2.0,3.0,1.5,2.0,1.0,23.0,11.5,28.0,14.0,0.0,0.0,0.0,0.0,0.0,0.0,4.300000190734863,2.150000095367432,2.0,1.0,0.0,0.0,23.0,11.5,2.0,1.0,196.0,98.0,0.0,0.0,0.0,0.0,0.0,7.67,11.5,0.0,0.0,0.0,11.5,0.0,11.5,0.0,11.5,2.15,1.0,1.0,17709.69645390071,20112021.9964539,2011.186524822695,72.68675177304964,207.25886524822695,9.586666666666668,52200.00992907801,72.80425531914894,207.31560283687944,32.67433333333334,4.5200463320463315,35.373366013071895,15.492,4.243622902270483,120.43132328308208,6.9371444695259585,11.728636363636362,19.495495495495497
158,Davante Adams,2014,2.0,66.0,38.0,446.0,675.0,173.0,3.0,0.0,100.6,0.15,0.109,0.045,6.76,11.74,0.0,0.0,38.0,3.0,0.08,446.0,11.74,14.0,0.0,31.86,0.0,31.86,7.19,0.0,0.701,688,0.042,2014.0,2.0,21.0,53.0,73.0,215.0,22,12,4,0,0.75,0.0,66.0,66.0,38.0,38.0,446.0,446.0,675.0,675.0,173.0,173.0,3.0,3.0,0.0,0.0,100.5999984741211,100.5999984741211,38.0,38.0,3.0,3.0,446.0,446.0,14.0,14.0,688.0,688.0,0.0,0.0,0.0,0.0,0.045,6.76,11.74,0.0,0.0,0.08,11.74,0.0,31.86,0.0,31.86,7.19,1.0,1.0,18268.0,20140053.0,2014.0,72.88,212.0,9.586666666666668,93740.0,73.0,215.0,32.67433333333334,4.56,39.5,14.0,4.3,123.0,6.82,11.728636363636362,19.495495495495497
159,David Bell,2022,2.0,35.0,24.0,214.0,256.0,69.0,0.0,0.0,45.4,0.06,0.058,0.0,6.11,8.92,0.0,0.0,24.0,0.0,0.0,214.0,8.92,13.0,0.0,16.46,0.0,16.46,3.49,0.0,0.461,506,0.022,2022.0,3.0,35.0,99.0,73.0,212.0,22,7,10,0,0.412,0.0,35.0,35.0,24.0,24.0,214.0,214.0,256.0,256.0,69.0,69.0,0.0,0.0,0.0,0.0,45.400001525878906,45.400001525878906,24.0,24.0,0.0,0.0,214.0,214.0,13.0,13.0,506.0,506.0,0.0,0.0,0.0,0.0,0.0,6.11,8.92,0.0,0.0,0.0,8.92,0.0,16.46,0.0,16.46,3.49,1.0,1.0,17709.69645390071,20112021.9964539,2011.186524822695,72.68675177304964,207.25886524822695,9.586666666666668,52200.00992907801,72.80425531914894,207.31560283687944,32.67433333333334,4.5200463320463315,35.373366013071895,15.492,4.243622902270483,120.43132328308208,6.9371444695259585,11.728636363636362,19.495495495495497
160,David Moore,2018,2.0,53.0,26.0,445.0,839.0,93.0,6.0,0.0,107.0,0.206,0.121,0.113,8.4,17.12,0.0,5.0,27.0,6.0,0.22,450.0,16.67,14.0,0.0,31.79,0.36,32.14,7.64,0.0,0.571,564,0.049,2017.0,7.0,8.0,226.0,72.0,220.0,23,10,6,0,0.625,1.0,53.0,53.0,26.0,26.0,445.0,445.0,839.0,839.0,93.0,93.0,6.0,6.0,0.0,0.0,107.0,107.0,27.0,27.0,6.0,6.0,450.0,450.0,14.0,14.0,564.0,564.0,0.0,0.0,0.0,0.0,0.113,8.4,17.12,0.0,5.0,0.22,16.67,0.0,31.79,0.36,32.14,7.64,4.0,10.0,17709.69645390071,20112021.9964539,2011.186524822695,72.68675177304964,207.25886524822695,9.586666666666668,52200.00992907801,72.80425531914894,207.31560283687944,32.67433333333334,4.5200463320463315,35.373366013071895,15.492,4.243622902270483,120.43132328308208,6.9371444695259585,11.728636363636362,19.495495495495497
161,David Nelson,2012,2.0,5.0,2.0,31.0,40.0,10.0,1.0,0.0,11.1,0.01,0.009,0.2,6.2,15.5,0.0,0.0,2.0,1.0,0.5,31.0,15.5,1.0,0.0,31.0,0.0,31.0,11.1,0.0,0.47,456,0.003,2010.0,8.0,48.0,263.0,77.0,215.0,26,6,10,0,0.375,2.0,5.0,2.5,2.0,1.0,31.0,15.5,40.0,20.0,10.0,5.0,1.0,0.5,0.0,0.0,11.100000381469728,5.550000190734863,2.0,1.0,1.0,0.5,31.0,15.5,1.0,0.5,456.0,228.0,0.0,0.0,0.0,0.0,0.2,6.2,15.5,0.0,0.0,0.5,15.5,0.0,31.0,0.0,31.0,11.1,1.0,1.0,17709.69645390071,20112021.9964539,2011.186524822695,72.68675177304964,207.25886524822695,9.586666666666668,52200.00992907801,72.80425531914894,207.31560283687944,32.67433333333334,4.5200463320463315,35.373366013071895,15.492,4.243622902270483,120.43132328308208,6.9371444695259585,11.728636363636362,19.495495495495497
162,David Sills,2022,2.0,17.0,11.0,106.0,133.0,40.0,0.0,0.0,21.6,0.026,0.03,0.0,6.24,9.64,0.0,0.0,11.0,0.0,0.0,106.0,9.64,7.0,0.0,15.14,0.0,15.14,3.09,0.0,0.441,474,0.012,2019.0,8.0,48.0,263.0,75.0,211.0,26,9,8,1,0.5,3.0,17.0,5.666666666666667,11.0,3.6666666666666665,106.0,35.333333333333336,133.0,44.333333333333336,40.0,13.333333333333334,0.0,0.0,0.0,0.0,21.600000381469727,7.200000127156575,11.0,3.6666666666666665,0.0,0.0,106.0,35.333333333333336,7.0,2.333333333333333,474.0,158.0,0.0,0.0,0.0,0.0,0.0,6.24,9.64,0.0,0.0,0.0,9.64,0.0,15.14,0.0,15.14,3.09,2.0,13.0,17709.69645390071,20112021.9964539,2011.186524822695,72.68675177304964,207.25886524822695,9.586666666666668,52200.00992907801,72.80425531914894,207.31560283687944,32.67433333333334,4.5200463320463315,35.373366013071895,15.492,4.243622902270483,120.43132328308208,6.9371444695259585,11.728636363636362,19.495495495495497
163,Davion Davis,2021,3.0,3.0,1.0,17.0,14.0,13.0,0.0,0.0,2.7,0.003,0.005,0.0,5.67,17.0,0.0,0.0,1.0,0.0,0.0,17.0,17.0,2.0,0.0,8.5,0.0,8.5,1.35,0.0,0.195,196,0.002,2019.0,8.0,48.0,263.0,71.0,195.0,25,4,13,0,0.235,2.0,3.0,1.5,1.0,0.5,17.0,8.5,14.0,7.0,13.0,6.5,0.0,0.0,0.0,0.0,2.700000047683716,1.350000023841858,1.0,0.5,0.0,0.0,17.0,8.5,2.0,1.0,196.0,98.0,0.0,0.0,0.0,0.0,0.0,5.67,17.0,0.0,0.0,0.0,17.0,0.0,8.5,0.0,8.5,1.35,1.0,1.0,17709.69645390071,20112021.9964539,2011.186524822695,72.68675177304964,207.25886524822695,9.586666666666668,52200.00992907801,72.80425531914894,207.31560283687944,32.67433333333334,4.5200463320463315,35.373366013071895,15.492,4.243622902270483,120.43132328308208,6.9371444695259585,11.728636363636362,19.495495495495497
164,Davone Bess,2012,2.0,105.0,61.0,778.0,1057.0,249.0,1.0,0.0,144.8,0.244,0.194,0.01,7.41,12.75,0.0,0.0,61.0,1.0,0.02,778.0,12.75,13.0,0.0,59.85,0.0,59.85,11.14,0.0,0.882,847,0.092,2008.0,8.0,48.0,263.0,70.0,195.0,27,7,9,0,0.438,4.0,105.0,26.25,61.0,15.25,778.0,194.5,1057.0,264.25,249.0,62.25,1.0,0.25,0.0,0.0,144.8000030517578,36.20000076293945,61.0,15.25,1.0,0.25,778.0,194.5,13.0,3.25,847.0,211.75,0.0,0.0,0.0,0.0,0.01,7.41,12.75,0.0,0.0,0.02,12.75,0.0,59.85,0.0,59.85,11.14,4.0,4.0,16524.0,20080544.0,2008.0,69.88,194.0,9.586666666666668,96813.0,70.0,195.0,32.67433333333334,4.77,31.5,12.0,4.27,118.0,6.97,11.728636363636362,19.495495495495497
