,player_name,season,depth,targets,receptions,receiving_yards,receiving_air_yards,yards_after_catch,reception_td,reception_fumble_lost,fantasy_points_ppr,air_yards_share,target_share,rec_td_pct,yptarget,ypr,rush_td_pct,ypc,touches,total_tds,td_pct,total_yards,yptouch,games,pass_ypg,rec_ypg,rush_ypg,ypg,ppg,passer_rating,offense_pct,offense_snaps,yards_pct,draft_year,draft_round,draft_pick,draft_ovr,height,weight_x,age,wins,losses,ties,win_pct,seasons_played,career_targets,average_targets,career_receptions,average_receptions,career_receiving_yards,average_receiving_yards,career_receiving_air_yards,average_receiving_air_yards,career_yards_after_catch,average_yards_after_catch,career_reception_td,average_reception_td,career_reception_fumble_lost,average_reception_fumble_lost,career_fantasy_points_ppr,average_fantasy_points_ppr,career_touches,average_touches,career_total_tds,average_total_tds,career_total_yards,average_total_yards,career_games,average_games,career_offense_snaps,average_offense_snaps,average_comp_pct,average_int_pct,average_pass_td_pct,average_ypa,average_rec_td_pct,average_yptarget,average_ypr,average_rush_td_pct,average_ypc,average_td_pct,average_yptouch,average_pass_ypg,average_rec_ypg,average_rush_ypg,average_ypg,average_ppg,injuries,career_injuries,combineId,playerId,combineYear,combineHeight,combineWeight,combineHand,collegeId,heightInches,weight_y,combineArm,combine40yd,combineVert,combineBench,combineShuttle,combineBroad,combine3cone,combine60ydShuttle,combineWonderlic
0,A.J. Brown,2023,1.0,158.0,106.0,1456.0,1853.0,473.0,8.0,2.0,293.6,0.351,0.238,0.051,9.22,13.74,0.0,0.0,106.0,8.0,0.08,1456.0,13.74,17.0,0.0,85.65,0.0,85.65,17.27,0.0,0.888,980,0.144,2019.0,2.0,19.0,51.0,73.0,226.0,26,11,6,0,0.647,4.0,598.0,149.5,379.0,94.75,5947.0,1486.75,7078.0,1769.5,2157.0,539.25,45.0,11.25,5.0,1.25,1241.7000122070312,310.4250030517578,386.0,96.5,46.0,11.5,6017.0,1504.25,77.0,19.25,4164.0,1041.0,0.0,0.0,0.0,0.0,0.075,9.94,15.69,0.2,14.0,0.12,15.59,0.0,77.23,0.91,78.14,16.13,1.0,7.0,20267.0,20190051.0,2019.0,72.0,226.0,9.586666666666668,38677.0,73.0,230.0,32.67433333333334,4.49,36.5,19.0,4.243622902270483,120.0,6.9371444695259585,11.728636363636362,19.495495495495497
1,A.J. Green,2022,1.0,49.0,24.0,238.0,515.0,56.0,2.0,0.0,59.8,0.106,0.074,0.041,4.86,9.92,0.0,0.0,24.0,2.0,0.08,238.0,9.92,13.0,0.0,18.31,0.0,18.31,4.6,0.0,0.519,592,0.025,2011.0,1.0,4.0,4.0,76.0,210.0,34,4,13,0,0.235,11.0,1157.0,105.1818181818182,662.0,60.18181818181818,9467.0,860.6363636363636,14843.0,1349.3636363636365,2470.0,224.54545454545453,68.0,6.181818181818182,7.0,0.6363636363636364,1999.700008392334,181.79090985384852,668.0,60.72727272727273,68.0,6.181818181818182,9507.0,864.2727272727273,140.0,12.727272727272728,8177.0,743.3636363636364,0.0,0.0,0.0,0.0,0.059,8.18,14.3,0.0,6.67,0.1,14.23,0.0,67.62,0.29,67.91,14.28,1.0,40.0,17440.0,20110004.0,2011.0,75.63,211.0,9.586666666666668,30602.0,76.0,210.0,32.67433333333334,4.48,34.5,18.0,4.21,126.0,6.91,11.728636363636362,10.0
2,A.J. Jenkins,2014,2.0,15.0,9.0,93.0,131.0,43.0,0.0,0.0,18.1,0.033,0.03,0.0,6.2,10.33,0.0,-1.0,11.0,0.0,0.0,91.0,8.27,7.0,0.0,13.29,-0.29,13.0,2.59,0.0,0.431,412,0.011,2012.0,1.0,30.0,30.0,73.0,195.0,24,9,7,0,0.562,2.0,33.0,16.5,17.0,8.5,223.0,111.5,333.0,166.5,87.0,43.5,0.0,0.0,0.0,0.0,39.70000076293945,19.850000381469727,21.0,10.5,0.0,0.0,227.0,113.5,15.0,7.5,768.0,384.0,0.0,0.0,0.0,0.0,0.0,6.76,13.12,0.0,1.0,0.0,10.81,0.0,14.87,0.27,15.13,2.65,3.0,3.0,17795.0,20120030.0,2012.0,72.25,190.0,9.586666666666668,61801.0,72.0,200.0,32.67433333333334,4.37,38.5,12.0,4.243622902270483,124.0,6.9371444695259585,11.728636363636362,19.495495495495497
3,A.T. Perry,2023,2.0,18.0,12.0,246.0,293.0,20.0,4.0,0.0,60.6,0.054,0.026,0.222,13.67,20.5,0.0,0.0,12.0,4.0,0.33,246.0,20.5,8.0,0.0,30.75,0.0,30.75,7.57,0.0,0.53,584,0.025,2023.0,6.0,18.0,195.0,77.0,205.0,24,9,8,0,0.529,0.0,18.0,18.0,12.0,12.0,246.0,246.0,293.0,293.0,20.0,20.0,4.0,4.0,0.0,0.0,60.59999847412109,60.59999847412109,12.0,12.0,4.0,4.0,246.0,246.0,8.0,8.0,584.0,584.0,0.0,0.0,0.0,0.0,0.222,13.67,20.5,0.0,0.0,0.33,20.5,0.0,30.75,0.0,30.75,7.57,1.0,1.0,17709.69645390071,20112021.9964539,2011.186524822695,72.68675177304964,207.25886524822695,9.586666666666668,52200.00992907801,72.80425531914894,207.31560283687944,32.67433333333334,4.5200463320463315,35.373366013071895,15.492,4.243622902270483,120.43132328308208,6.9371444695259585,11.728636363636362,19.495495495495497
4,Aaron Burbridge,2016,2.0,16.0,7.0,88.0,139.0,43.0,0.0,0.0,15.8,0.036,0.034,0.0,5.5,12.57,0.0,0.0,7.0,0.0,0.0,88.0,12.57,8.0,0.0,11.0,0.0,11.0,1.98,0.0,0.235,232,0.011,2016.0,6.0,38.0,213.0,73.0,208.0,23,2,14,0,0.125,0.0,16.0,16.0,7.0,7.0,88.0,88.0,139.0,139.0,43.0,43.0,0.0,0.0,0.0,0.0,15.800000190734863,15.800000190734863,7.0,7.0,0.0,0.0,88.0,88.0,8.0,8.0,232.0,232.0,0.0,0.0,0.0,0.0,0.0,5.5,12.57,0.0,0.0,0.0,12.57,0.0,11.0,0.0,11.0,1.98,1.0,3.0,19352.0,20160213.0,2016.0,72.0,206.0,9.586666666666668,48824.0,73.0,208.0,32.67433333333334,4.56,30.5,20.0,4.31,115.0,7.22,11.728636363636362,19.495495495495497
5,Aaron Dobson,2015,2.0,21.0,13.0,141.0,209.0,29.0,0.0,0.0,27.1,0.038,0.032,0.0,6.71,10.85,0.0,0.0,13.0,0.0,0.0,141.0,10.85,6.0,0.0,23.5,0.0,23.5,4.52,0.0,0.354,364,0.013,2013.0,2.0,27.0,59.0,75.0,205.0,24,12,4,0,0.75,2.0,98.0,49.0,53.0,26.5,698.0,349.0,1258.0,629.0,235.0,117.5,4.0,2.0,0.0,0.0,146.8000020980835,73.40000104904175,53.0,26.5,4.0,2.0,698.0,349.0,21.0,10.5,1278.0,639.0,0.0,0.0,0.0,0.0,0.041,7.12,13.17,0.0,0.0,0.08,13.17,0.0,33.24,0.0,33.24,6.99,11.0,11.0,17709.69645390071,20112021.9964539,2011.186524822695,72.68675177304964,207.25886524822695,9.586666666666668,52200.00992907801,72.80425531914894,207.31560283687944,32.67433333333334,4.5200463320463315,35.373366013071895,15.492,4.243622902270483,120.43132328308208,6.9371444695259585,11.728636363636362,19.495495495495497
6,Ace Sanders,2014,2.0,7.0,6.0,55.0,26.0,24.0,0.0,0.0,11.5,0.005,0.011,0.0,7.86,9.17,0.0,0.0,6.0,0.0,0.0,55.0,9.17,6.0,0.0,9.17,0.0,9.17,1.92,0.0,0.084,82,0.007,2013.0,4.0,4.0,101.0,67.0,178.0,23,3,13,0,0.188,1.0,93.0,93.0,57.0,57.0,539.0,539.0,528.0,528.0,321.0,321.0,1.0,1.0,0.0,0.0,124.13999938964844,124.13999938964844,60.0,60.0,2.0,2.0,564.0,564.0,21.0,21.0,697.0,697.0,1.0,0.0,1.0,21.0,0.011,5.8,9.46,0.0,2.0,0.03,9.4,1.0,25.67,0.19,26.86,5.91,4.0,4.0,18192.0,20130101.0,2013.0,67.0,173.0,9.586666666666668,29208.0,67.0,178.0,32.67433333333334,4.58,32.0,7.0,4.37,117.0,6.81,11.728636363636362,19.495495495495497
7,Adam Humphries,2021,1.0,62.0,41.0,383.0,411.0,158.0,0.0,0.0,79.3,0.108,0.131,0.0,6.18,9.34,0.0,0.0,41.0,0.0,0.0,383.0,9.34,17.0,0.0,22.53,0.0,22.53,4.66,0.0,0.587,625,0.041,2015.0,8.0,48.0,263.0,71.0,195.0,28,7,10,0,0.412,6.0,459.0,76.5,320.0,53.333333333333336,3310.0,551.6666666666666,3032.0,505.3333333333333,1550.0,258.3333333333333,15.0,2.5,1.0,0.1666666666666666,741.5999946594238,123.59999910990398,330.0,55.0,15.0,2.5,3346.0,557.6666666666666,94.0,15.666666666666666,4069.0,678.1666666666666,0.0,0.0,0.0,0.0,0.033,7.21,10.34,0.0,4.0,0.05,10.14,0.0,35.21,0.38,35.6,7.89,1.0,14.0,17709.69645390071,20112021.9964539,2011.186524822695,72.68675177304964,207.25886524822695,9.586666666666668,52200.00992907801,72.80425531914894,207.31560283687944,32.67433333333334,4.5200463320463315,35.373366013071895,15.492,4.243622902270483,120.43132328308208,6.9371444695259585,11.728636363636362,19.495495495495497
8,Adam Thielen,2023,1.0,138.0,103.0,1016.0,1058.0,340.0,4.0,0.0,229.2,0.232,0.263,0.029,7.36,9.86,0.0,6.0,104.0,4.0,0.04,1022.0,9.83,17.0,0.0,59.76,0.35,60.12,13.48,0.0,0.91,995,0.132,2014.0,8.0,48.0,263.0,74.0,195.0,33,2,15,0,0.118,9.0,918.0,102.0,637.0,70.77777777777777,7706.0,856.2222222222222,9094.0,1010.4444444444443,2334.0,259.3333333333333,59.0,6.555555555555555,4.0,0.4444444444444444,1773.3999938964844,197.04444376627603,659.0,73.22222222222221,60.0,6.666666666666666,7884.0,876.0,135.0,15.0,7507.0,834.1111111111111,0.0,0.0,0.0,0.0,0.064,8.39,12.1,0.045,8.09,0.09,11.96,0.0,57.08,1.32,58.4,13.14,1.0,16.0,17709.69645390071,20112021.9964539,2011.186524822695,72.68675177304964,207.25886524822695,9.586666666666668,52200.00992907801,72.80425531914894,207.31560283687944,32.67433333333334,4.5200463320463315,35.373366013071895,15.492,4.243622902270483,120.43132328308208,6.9371444695259585,11.728636363636362,19.495495495495497
9,Albert Wilson,2021,1.0,39.0,25.0,213.0,210.0,143.0,0.0,0.0,47.96,0.048,0.072,0.0,5.46,8.52,0.0,4.25,31.0,0.0,0.0,229.0,7.39,10.0,-0.1,21.3,1.7,22.9,4.8,0.0,0.382,414,0.025,2014.0,8.0,48.0,263.0,69.0,195.0,29,9,8,0,0.529,7.0,334.0,47.71428571428572,218.0,31.142857142857142,2488.0,355.42857142857144,2366.0,338.0,1481.0,211.57142857142856,13.0,1.8571428571428568,1.0,0.1428571428571428,572.2399978637695,81.74857112339565,251.0,35.857142857142854,15.0,2.142857142857143,2709.0,387.0,78.0,11.142857142857142,3546.0,506.57142857142856,0.333,0.0,0.167,10.17,0.039,7.45,11.41,0.037,5.93,0.06,10.79,0.78,31.9,2.05,34.73,7.34,6.0,21.0,18567.0,20140613.0,2014.0,69.0,202.0,9.586666666666668,30303.0,69.0,200.0,32.67433333333334,4.43,37.5,10.0,4.21,123.0,7.0,11.728636363636362,19.495495495495497
10,Aldrick Robinson,2018,3.0,35.0,17.0,231.0,601.0,42.0,5.0,0.0,70.1,0.18,0.068,0.143,6.6,13.59,0.0,0.0,17.0,5.0,0.29,231.0,13.59,14.0,0.0,16.5,0.0,16.5,5.01,0.0,0.291,289,0.023,2011.0,6.0,13.0,178.0,70.0,185.0,30,8,8,1,0.471,7.0,184.0,26.285714285714285,86.0,12.285714285714286,1422.0,203.14285714285717,2833.0,404.7142857142857,319.0,45.57142857142857,14.0,2.0,0.0,0.0,313.1999984979629,44.742856928280425,90.0,12.857142857142858,14.0,2.0,1432.0,204.57142857142856,65.0,9.285714285714286,1680.0,240.0,0.0,0.0,0.0,0.0,0.076,7.73,16.53,0.0,2.5,0.16,15.91,0.0,21.88,0.15,22.03,4.82,1.0,1.0,17564.0,20110178.0,2011.0,69.63,184.0,9.586666666666668,75205.0,70.0,187.0,32.67433333333334,4.35,40.0,17.0,4.09,126.0,6.65,11.728636363636362,19.495495495495497
11,Alec Pierce,2023,1.0,65.0,32.0,514.0,977.0,97.0,2.0,0.0,95.4,0.153,0.098,0.031,7.91,16.06,0.0,0.0,32.0,2.0,0.06,514.0,16.06,17.0,0.0,30.24,0.0,30.24,5.61,0.0,0.952,1034,0.053,2022.0,2.0,21.0,53.0,75.0,211.0,23,9,8,0,0.529,1.0,143.0,143.0,73.0,73.0,1107.0,1107.0,1891.0,1891.0,210.0,210.0,4.0,4.0,0.0,0.0,207.70000457763672,207.70000457763672,73.0,73.0,4.0,4.0,1107.0,1107.0,33.0,33.0,1764.0,1764.0,0.0,0.0,0.0,0.0,0.028,7.74,15.16,0.0,0.0,0.05,15.16,0.0,33.55,0.0,33.55,6.29,2.0,3.0,17709.69645390071,20112021.9964539,2011.186524822695,72.68675177304964,207.25886524822695,9.586666666666668,52200.00992907801,72.80425531914894,207.31560283687944,32.67433333333334,4.5200463320463315,35.373366013071895,15.492,4.243622902270483,120.43132328308208,6.9371444695259585,11.728636363636362,19.495495495495497
12,Alex Erickson,2023,2.0,29.0,16.0,227.0,295.0,53.0,1.0,0.0,44.7,0.074,0.05,0.034,7.83,14.19,0.0,0.0,16.0,1.0,0.06,227.0,14.19,8.0,0.0,28.38,0.0,28.38,5.59,0.0,0.6,657,0.023,2016.0,8.0,48.0,263.0,72.0,195.0,31,5,12,0,0.294,7.0,181.0,25.857142857142858,112.0,16.0,1368.0,195.42857142857144,1674.0,239.14285714285717,522.0,74.57142857142857,4.0,0.5714285714285714,0.0,0.0,278.63999938964844,39.80571419852121,132.0,18.857142857142858,4.0,0.5714285714285714,1472.0,210.28571428571428,63.0,9.0,2220.0,317.1428571428572,0.5,0.0,0.0,13.0,0.022,7.56,12.21,0.0,4.33,0.03,11.15,0.41,21.71,1.24,23.37,4.42,1.0,1.0,17709.69645390071,20112021.9964539,2011.186524822695,72.68675177304964,207.25886524822695,9.586666666666668,52200.00992907801,72.80425531914894,207.31560283687944,32.67433333333334,4.5200463320463315,35.373366013071895,15.492,4.243622902270483,120.43132328308208,6.9371444695259585,11.728636363636362,19.495495495495497
13,Alexander Hollins,2019,3.0,4.0,2.0,46.0,75.0,6.0,0.0,0.0,6.6,0.022,0.008,0.0,11.5,23.0,0.0,0.0,2.0,0.0,0.0,46.0,23.0,2.0,0.0,23.0,0.0,23.0,3.3,0.0,0.27,258,0.005,2019.0,8.0,48.0,263.0,73.0,166.0,23,10,6,0,0.625,0.0,4.0,4.0,2.0,2.0,46.0,46.0,75.0,75.0,6.0,6.0,0.0,0.0,0.0,0.0,6.599999904632568,6.599999904632568,2.0,2.0,0.0,0.0,46.0,46.0,2.0,2.0,258.0,258.0,0.0,0.0,0.0,0.0,0.0,11.5,23.0,0.0,0.0,0.0,23.0,0.0,23.0,0.0,23.0,3.3,4.0,15.0,17709.69645390071,20112021.9964539,2011.186524822695,72.68675177304964,207.25886524822695,9.586666666666668,52200.00992907801,72.80425531914894,207.31560283687944,32.67433333333334,4.5200463320463315,35.373366013071895,15.492,4.243622902270483,120.43132328308208,6.9371444695259585,11.728636363636362,19.495495495495497
14,Allen Hurns,2019,2.0,48.0,32.0,416.0,507.0,96.0,2.0,1.0,82.6,0.117,0.089,0.042,8.67,13.0,0.0,0.0,32.0,2.0,0.06,416.0,13.0,14.0,0.0,29.71,0.0,29.71,5.9,0.0,0.553,560,0.046,2014.0,8.0,48.0,263.0,73.0,195.0,28,5,11,0,0.312,5.0,419.0,83.8,241.0,48.2,3380.0,676.0,4464.0,892.8,1112.0,222.4,28.0,5.6,2.0,0.4,741.0,148.2,241.0,48.2,28.0,5.6,3380.0,676.0,79.0,15.8,4312.0,862.4,0.0,0.0,0.0,0.0,0.067,8.07,14.02,0.0,0.0,0.12,14.02,0.0,42.78,0.0,42.78,9.38,2.0,31.0,18393.0,20140593.0,2014.0,73.25,198.0,9.586666666666668,33124.0,75.0,201.0,32.67433333333334,4.55,31.0,14.0,4.5,120.0,7.23,11.728636363636362,19.495495495495497
15,Allen Lazard,2023,1.0,49.0,23.0,311.0,597.0,56.0,1.0,0.0,60.1,0.136,0.091,0.02,6.35,13.52,0.0,0.0,23.0,1.0,0.04,311.0,13.52,13.0,0.0,23.92,0.0,23.92,4.62,0.0,0.774,811,0.039,2018.0,8.0,48.0,263.0,77.0,227.0,28,7,10,0,0.412,5.0,309.0,61.8,192.0,38.4,2547.0,509.4,3694.0,738.8,804.0,160.8,22.0,4.4,0.0,0.0,585.7000076770782,117.14000153541564,200.0,40.0,22.0,4.4,2617.0,523.4,64.0,12.8,3698.0,739.6,0.0,0.0,0.0,0.0,0.071,8.24,13.27,0.0,8.75,0.11,13.08,0.0,39.8,1.09,40.89,9.15,2.0,10.0,20121.0,20180556.0,2018.0,77.0,227.0,9.586666666666668,50011.0,76.0,227.0,32.67433333333334,4.55,38.0,17.0,4.243622902270483,122.0,6.9371444695259585,11.728636363636362,19.495495495495497
16,Allen Robinson,2023,1.0,49.0,34.0,280.0,370.0,68.0,0.0,0.0,62.0,0.075,0.081,0.0,5.71,8.24,0.0,0.0,34.0,0.0,0.0,280.0,8.24,14.0,0.0,20.0,0.0,20.0,4.43,0.0,0.723,728,0.032,2014.0,2.0,29.0,61.0,74.0,210.0,30,10,7,0,0.588,9.0,954.0,106.0,562.0,62.44444444444444,7034.0,781.5555555555555,11046.0,1227.3333333333333,1765.0,196.11111111111111,46.0,5.111111111111111,1.0,0.1111111111111111,1539.3999893665314,171.04444326294794,565.0,62.77777777777778,46.0,5.111111111111111,7044.0,782.6666666666666,124.0,13.77777777777778,7916.0,879.5555555555555,0.0,0.0,0.0,0.0,0.048,7.37,12.52,0.0,3.33,0.08,12.47,0.0,56.73,0.08,56.81,12.41,1.0,17.0,18504.0,20140061.0,2014.0,74.63,220.0,9.586666666666668,16802.0,75.0,211.0,32.67433333333334,4.6,39.0,15.492,4.0,126.0,7.0,11.728636363636362,19.495495495495497
17,Alshon Jeffery,2020,1.0,13.0,6.0,115.0,188.0,25.0,1.0,0.0,23.5,0.036,0.02,0.077,8.85,19.17,0.0,0.0,6.0,1.0,0.17,115.0,19.17,7.0,0.0,16.43,0.0,16.43,3.36,0.0,0.403,433,0.013,2012.0,2.0,13.0,45.0,75.0,218.0,30,4,12,1,0.235,8.0,833.0,104.125,475.0,59.375,6789.0,848.625,10555.0,1319.375,1935.0,241.875,49.0,6.125,1.0,0.125,1464.8999938964844,183.11249923706052,498.0,62.25,50.0,6.25,6929.0,866.125,108.0,13.5,7186.0,898.25,0.0,0.0,0.0,0.0,0.059,8.15,14.29,0.043,6.09,0.1,13.91,0.0,62.86,1.3,64.16,13.56,8.0,44.0,17794.0,20120045.0,2012.0,74.88,216.0,9.586666666666668,29208.0,75.0,218.0,32.67433333333334,4.48,35.373366013071895,15.492,4.243622902270483,120.43132328308208,6.9371444695259585,11.728636363636362,19.495495495495497
18,Amara Darboh,2017,3.0,13.0,8.0,71.0,157.0,16.0,0.0,0.0,15.1,0.039,0.03,0.0,5.46,8.88,0.0,0.0,8.0,0.0,0.0,71.0,8.88,8.0,0.0,8.88,0.0,8.88,1.89,0.0,0.176,174,0.008,2017.0,3.0,43.0,106.0,74.0,215.0,23,9,7,0,0.562,0.0,13.0,13.0,8.0,8.0,71.0,71.0,157.0,157.0,16.0,16.0,0.0,0.0,0.0,0.0,15.100000381469728,15.100000381469728,8.0,8.0,0.0,0.0,71.0,71.0,8.0,8.0,174.0,174.0,0.0,0.0,0.0,0.0,0.0,5.46,8.88,0.0,0.0,0.0,8.88,0.0,8.88,0.0,8.88,1.89,2.0,14.0,19694.0,20170106.0,2017.0,73.75,214.0,9.586666666666668,48109.0,74.0,219.0,32.67433333333334,4.45,36.0,17.0,4.26,124.0,6.9371444695259585,11.728636363636362,19.495495495495497
19,Amari Cooper,2023,1.0,130.0,72.0,1252.0,1834.0,271.0,5.0,1.0,224.2,0.431,0.216,0.038,9.63,17.39,0.0,0.0,72.0,5.0,0.07,1252.0,17.39,15.0,0.0,83.47,0.0,83.47,14.95,0.0,0.781,922,0.128,2015.0,1.0,4.0,4.0,73.0,211.0,29,11,6,0,0.647,8.0,722.0,90.25,464.0,58.0,6585.0,823.125,8344.0,1043.0,1867.0,233.375,42.0,5.25,3.0,0.375,1367.6999969482422,170.96249961853027,475.0,59.375,42.0,5.25,6627.0,828.375,88.0,11.0,5237.0,654.625,0.0,1.0,0.0,0.0,0.058,9.12,14.19,0.0,4.2,0.09,13.95,0.0,74.83,0.48,75.31,15.54,4.0,25.0,18631.0,20150004.0,2015.0,72.7,211.0,9.586666666666668,35487.0,73.0,210.0,32.67433333333334,4.42,33.0,15.492,3.98,120.0,6.71,11.728636363636362,19.495495495495497
20,Amari Rodgers,2023,3.0,2.0,0.0,0.0,30.0,0.0,0.0,0.0,0.0,0.005,0.003,0.0,0.0,0.0,0.0,0.0,0.0,0.0,0.0,0.0,0.0,1.0,0.0,0.0,0.0,0.0,0.0,0.0,0.113,122,0.0,2021.0,3.0,21.0,85.0,69.0,212.0,24,9,8,0,0.529,2.0,37.0,18.5,20.0,10.0,255.0,127.5,310.0,155.0,93.0,46.5,1.0,0.5,0.0,0.0,53.30000114440918,26.65000057220459,23.0,11.5,1.0,0.5,273.0,136.5,9.0,4.5,449.0,224.5,0.0,0.0,0.0,0.0,0.027,6.89,12.75,0.0,6.0,0.04,11.87,0.0,28.33,2.0,30.33,5.92,1.0,1.0,17709.69645390071,20112021.9964539,2011.186524822695,72.68675177304964,207.25886524822695,9.586666666666668,52200.00992907801,72.80425531914894,207.31560283687944,32.67433333333334,4.5200463320463315,35.373366013071895,15.492,4.243622902270483,120.43132328308208,6.9371444695259585,11.728636363636362,19.495495495495497
21,Amon-Ra St. Brown,2023,1.0,165.0,119.0,1515.0,1271.0,668.0,11.0,1.0,335.58,0.197,0.216,0.067,9.18,12.73,0.0,6.0,124.0,11.0,0.09,1531.0,12.35,16.0,-0.5,94.69,1.5,95.69,20.97,-31.25,0.898,1003,0.135,2021.0,4.0,7.0,112.0,72.0,202.0,24,12,5,0,0.706,2.0,432.0,216.0,315.0,157.5,3606.0,1803.0,3035.0,1517.5,1623.0,811.5,22.0,11.0,1.0,0.5,828.2799835205078,414.1399917602539,336.0,168.0,23.0,11.5,3778.0,1889.0,48.0,24.0,2630.0,1315.0,0.0,0.0,0.0,-8.0,0.051,8.35,11.45,0.05,9.0,0.07,11.24,-0.17,75.12,3.75,78.71,17.26,3.0,6.0,17709.69645390071,20112021.9964539,2011.186524822695,72.68675177304964,207.25886524822695,9.586666666666668,52200.00992907801,72.80425531914894,207.31560283687944,32.67433333333334,4.5200463320463315,35.373366013071895,15.492,4.243622902270483,120.43132328308208,6.9371444695259585,11.728636363636362,19.495495495495497
22,Andre Caldwell,2015,2.0,22.0,10.0,72.0,217.0,16.0,2.0,0.0,29.5,0.045,0.036,0.091,3.27,7.2,0.0,3.0,11.0,2.0,0.18,75.0,6.82,12.0,0.0,6.0,0.25,6.25,2.46,0.0,0.277,290,0.008,2008.0,3.0,34.0,97.0,72.0,200.0,30,12,4,0,0.75,7.0,70.0,10.0,32.0,4.571428571428571,337.0,48.142857142857146,835.0,119.28571428571428,77.0,11.0,5.0,0.7142857142857143,0.0,0.0,98.10000038146973,14.01428576878139,35.0,5.0,5.0,0.7142857142857143,361.0,51.57142857142858,35.0,5.0,970.0,138.57142857142858,0.0,0.0,0.0,0.0,0.071,4.81,10.53,0.0,8.0,0.14,10.31,0.0,9.63,0.69,10.31,2.8,4.0,5.0,16545.0,20080097.0,2008.0,72.25,204.0,9.586666666666668,32611.0,73.0,200.0,32.67433333333334,4.39,33.0,15.492,4.11,124.0,6.75,11.728636363636362,19.495495495495497
23,Andre Holmes,2018,2.0,24.0,13.0,162.0,313.0,50.0,0.0,0.0,29.2,0.079,0.045,0.0,6.75,12.46,0.0,0.0,13.0,0.0,0.0,162.0,12.46,10.0,0.0,16.2,0.0,16.2,2.92,0.0,0.363,363,0.021,2011.0,8.0,48.0,263.0,76.0,210.0,30,6,10,0,0.375,7.0,49.0,7.0,28.0,4.0,293.0,41.85714285714285,629.0,89.85714285714286,64.0,9.142857142857142,3.0,0.4285714285714285,0.0,0.0,75.30000066757202,10.75714295251029,28.0,4.0,3.0,0.4285714285714285,293.0,41.85714285714285,22.0,3.142857142857143,837.0,119.57142857142856,0.0,0.0,0.0,0.0,0.061,5.98,10.46,0.0,0.0,0.11,10.46,0.0,13.32,0.0,13.32,3.42,1.0,13.0,17461.0,20110496.0,2011.0,76.38,210.0,9.586666666666668,49242.0,76.0,210.0,32.67433333333334,4.51,35.0,11.0,4.31,130.0,6.69,11.728636363636362,19.495495495495497
24,Andre Johnson,2016,2.0,23.0,9.0,85.0,268.0,15.0,2.0,0.0,29.5,0.056,0.04,0.087,3.7,9.44,0.0,0.0,9.0,2.0,0.22,85.0,9.44,6.0,0.0,14.17,0.0,14.17,4.92,0.0,0.398,396,0.009,2003.0,1.0,3.0,3.0,75.0,229.0,35,9,7,0,0.562,13.0,592.0,45.53846153846154,356.0,27.384615384615383,4529.0,348.38461538461536,6270.0,482.3076923076923,1504.0,115.6923076923077,20.0,1.5384615384615383,3.0,0.2307692307692307,919.9000091552734,70.76153916579027,356.0,27.384615384615383,20.0,1.5384615384615383,4529.0,348.38461538461536,69.0,5.307692307692308,3879.0,298.38461538461536,0.0,0.0,0.0,0.0,0.034,7.65,12.72,0.0,0.0,0.06,12.72,0.0,65.64,0.0,65.64,13.33,2.0,28.0,15238.0,20030003.0,2003.0,74.0,230.0,9.586666666666668,33124.0,75.0,229.0,32.67433333333334,4.4,39.0,15.492,4.243622902270483,132.0,6.9371444695259585,11.728636363636362,19.495495495495497
25,Andre Patton,2019,2.0,17.0,6.0,56.0,272.0,28.0,0.0,0.0,11.6,0.069,0.03,0.0,3.29,9.33,0.0,0.0,6.0,0.0,0.0,56.0,9.33,7.0,0.0,8.0,0.0,8.0,1.66,0.0,0.637,628,0.005,2017.0,8.0,48.0,263.0,74.0,200.0,25,5,11,0,0.312,2.0,17.0,8.5,6.0,3.0,56.0,28.0,272.0,136.0,28.0,14.0,0.0,0.0,0.0,0.0,11.600000381469728,5.800000190734863,6.0,3.0,0.0,0.0,56.0,28.0,7.0,3.5,628.0,314.0,0.0,0.0,0.0,0.0,0.0,3.29,9.33,0.0,0.0,0.0,9.33,0.0,8.0,0.0,8.0,1.66,1.0,1.0,17709.69645390071,20112021.9964539,2011.186524822695,72.68675177304964,207.25886524822695,9.586666666666668,52200.00992907801,72.80425531914894,207.31560283687944,32.67433333333334,4.5200463320463315,35.373366013071895,15.492,4.243622902270483,120.43132328308208,6.9371444695259585,11.728636363636362,19.495495495495497
26,Andre Roberts,2021,2.0,2.0,1.0,35.0,29.0,16.0,0.0,0.0,6.4,0.007,0.003,0.0,17.5,35.0,0.0,6.33,4.0,0.0,0.0,54.0,13.5,3.0,0.0,11.67,6.33,18.0,2.13,0.0,0.02,22,0.005,2010.0,3.0,24.0,88.0,71.0,195.0,33,9,8,0,0.529,11.0,345.0,31.363636363636363,187.0,17.0,2186.0,198.72727272727272,3638.0,330.72727272727275,692.0,62.90909090909091,12.0,1.0909090909090908,1.0,0.0909090909090909,483.9000017642975,43.99090925129977,200.0,18.181818181818183,12.0,1.0909090909090908,2279.0,207.1818181818182,89.0,8.090909090909092,3300.0,300.0,0.0,0.0,0.0,0.0,0.035,6.34,11.69,0.0,7.15,0.06,11.4,0.0,24.56,1.04,25.61,5.44,1.0,23.0,17267.0,20100088.0,2010.0,70.88,195.0,9.586666666666668,29409.0,71.0,195.0,32.67433333333334,4.4,36.0,15.0,4.15,120.0,6.77,11.728636363636362,19.495495495495497
27,Andrei Iosivas,2023,2.0,25.0,15.0,116.0,215.0,35.0,4.0,0.0,50.6,0.046,0.043,0.16,4.64,7.73,0.0,0.0,15.0,4.0,0.27,116.0,7.73,9.0,0.0,12.89,0.0,12.89,5.62,0.0,0.259,267,0.012,2023.0,6.0,29.0,206.0,75.0,205.0,24,9,8,0,0.529,0.0,25.0,25.0,15.0,15.0,116.0,116.0,215.0,215.0,35.0,35.0,4.0,4.0,0.0,0.0,50.59999847412109,50.59999847412109,15.0,15.0,4.0,4.0,116.0,116.0,9.0,9.0,267.0,267.0,0.0,0.0,0.0,0.0,0.16,4.64,7.73,0.0,0.0,0.27,7.73,0.0,12.89,0.0,12.89,5.62,1.0,1.0,17709.69645390071,20112021.9964539,2011.186524822695,72.68675177304964,207.25886524822695,9.586666666666668,52200.00992907801,72.80425531914894,207.31560283687944,32.67433333333334,4.5200463320463315,35.373366013071895,15.492,4.243622902270483,120.43132328308208,6.9371444695259585,11.728636363636362,19.495495495495497
28,Andy Isabella,2022,2.0,5.0,2.0,21.0,70.0,5.0,0.0,0.0,4.2,0.014,0.008,0.0,4.2,10.5,0.0,1.0,3.0,0.0,0.0,22.0,7.33,2.0,0.0,10.5,0.5,11.0,2.1,0.0,0.297,339,0.002,2019.0,2.0,30.0,62.0,69.0,188.0,26,4,13,0,0.235,3.0,54.0,18.0,33.0,11.0,447.0,149.0,552.0,184.0,234.0,78.0,4.0,1.3333333333333333,0.0,0.0,102.70000052452087,34.23333350817362,39.0,13.0,4.0,1.3333333333333333,457.0,152.33333333333334,23.0,7.666666666666667,963.0,321.0,0.0,0.0,0.0,0.0,0.074,8.28,13.55,0.0,1.67,0.1,11.72,0.0,19.43,0.43,19.87,4.47,1.0,2.0,20379.0,20190062.0,2019.0,69.0,188.0,9.586666666666668,1003.0,69.0,188.0,32.67433333333334,4.31,36.5,15.0,4.15,121.0,6.95,11.728636363636362,19.495495495495497
29,Andy Jones,2018,2.0,24.0,11.0,80.0,219.0,26.0,1.0,0.0,25.0,0.034,0.031,0.042,3.33,7.27,0.0,0.0,11.0,1.0,0.09,80.0,7.27,5.0,0.0,16.0,0.0,16.0,5.0,0.0,0.481,487,0.009,2016.0,8.0,48.0,263.0,73.0,217.0,24,6,10,0,0.375,2.0,24.0,12.0,11.0,5.5,80.0,40.0,219.0,109.5,26.0,13.0,1.0,0.5,0.0,0.0,25.0,12.5,11.0,5.5,1.0,0.5,80.0,40.0,5.0,2.5,487.0,243.5,0.0,0.0,0.0,0.0,0.042,3.33,7.27,0.0,0.0,0.09,7.27,0.0,16.0,0.0,16.0,5.0,1.0,2.0,17709.69645390071,20112021.9964539,2011.186524822695,72.68675177304964,207.25886524822695,9.586666666666668,52200.00992907801,72.80425531914894,207.31560283687944,32.67433333333334,4.5200463320463315,35.373366013071895,15.492,4.243622902270483,120.43132328308208,6.9371444695259585,11.728636363636362,19.495495495495497
30,Anquan Boldin,2016,1.0,95.0,67.0,584.0,546.0,231.0,9.0,0.0,179.4,0.085,0.124,0.095,6.15,8.72,0.0,0.0,67.0,9.0,0.13,584.0,8.72,16.0,0.0,36.5,0.0,36.5,11.21,0.0,0.799,776,0.06,2003.0,2.0,22.0,54.0,73.0,220.0,36,9,7,0,0.562,13.0,580.0,44.61538461538461,369.0,28.384615384615383,4537.0,349.0,5146.0,395.84615384615387,1575.0,121.15384615384616,31.0,2.3846153846153846,1.0,0.0769230769230769,1007.5,77.5,374.0,28.769230769230766,31.0,2.3846153846153846,4555.0,350.38461538461536,77.0,5.923076923076923,4165.0,320.38461538461536,0.0,0.0,0.0,0.0,0.053,7.82,12.3,0.0,4.5,0.08,12.18,0.0,58.92,0.23,59.16,13.08,1.0,14.0,15157.0,20030054.0,2003.0,72.6,216.0,9.586666666666668,32306.0,73.0,220.0,32.67433333333334,4.73,33.5,15.492,4.25,114.0,7.35,11.728636363636362,19.495495495495497
31,Anthony Armstrong,2012,3.0,9.0,3.0,12.0,107.0,3.0,0.0,0.0,4.2,0.025,0.017,0.0,1.33,4.0,0.0,0.0,3.0,0.0,0.0,12.0,4.0,2.0,0.0,6.0,0.0,6.0,2.1,0.0,0.2,192,0.001,2008.0,8.0,48.0,263.0,70.0,185.0,29,7,9,0,0.438,4.0,9.0,2.25,3.0,0.75,12.0,3.0,107.0,26.75,3.0,0.75,0.0,0.0,0.0,0.0,4.199999809265137,1.0499999523162842,3.0,0.75,0.0,0.0,12.0,3.0,2.0,0.5,192.0,48.0,0.0,0.0,0.0,0.0,0.0,1.33,4.0,0.0,0.0,0.0,4.0,0.0,6.0,0.0,6.0,2.1,2.0,2.0,17709.69645390071,20112021.9964539,2011.186524822695,72.68675177304964,207.25886524822695,9.586666666666668,52200.00992907801,72.80425531914894,207.31560283687944,32.67433333333334,4.5200463320463315,35.373366013071895,15.492,4.243622902270483,120.43132328308208,6.9371444695259585,11.728636363636362,19.495495495495497
32,Anthony Miller,2021,2.0,12.0,6.0,25.0,76.0,10.0,1.0,0.0,14.5,0.017,0.021,0.083,2.08,4.17,0.0,0.0,6.0,1.0,0.17,25.0,4.17,2.0,0.0,12.5,0.0,12.5,7.25,0.0,0.69,694,0.003,2018.0,2.0,19.0,51.0,71.0,190.0,27,4,13,0,0.235,3.0,227.0,75.66666666666667,140.0,46.66666666666666,1589.0,529.6666666666666,2280.0,760.0,545.0,181.66666666666663,12.0,4.0,1.0,0.3333333333333333,368.9199981689453,122.97333272298177,150.0,50.0,12.0,4.0,1634.0,544.6666666666666,48.0,16.0,2467.0,822.3333333333334,1.0,0.0,0.0,8.0,0.053,7.0,11.35,0.0,4.11,0.08,10.89,0.17,33.1,0.77,34.04,7.69,1.0,1.0,20141.0,20180051.0,2018.0,71.0,201.0,9.586666666666668,38152.0,71.0,190.0,32.67433333333334,4.5200463320463315,35.373366013071895,22.0,4.243622902270483,120.43132328308208,6.9371444695259585,11.728636363636362,19.495495495495497
33,Anthony Schwartz,2022,2.0,10.0,4.0,51.0,142.0,27.0,0.0,1.0,17.8,0.033,0.017,0.0,5.1,12.75,0.25,14.25,8.0,1.0,0.12,108.0,13.5,6.0,0.0,8.5,9.5,18.0,2.97,0.0,0.149,163,0.011,2021.0,3.0,27.0,91.0,72.0,195.0,22,7,10,0,0.412,1.0,33.0,33.0,14.0,14.0,186.0,186.0,538.0,538.0,37.0,37.0,1.0,1.0,1.0,1.0,51.20000076293945,51.20000076293945,24.0,24.0,2.0,2.0,282.0,282.0,18.0,18.0,508.0,508.0,0.0,0.0,0.0,0.0,0.03,5.64,13.29,0.1,9.6,0.08,11.75,0.0,10.33,5.33,15.67,2.84,5.0,5.0,17709.69645390071,20112021.9964539,2011.186524822695,72.68675177304964,207.25886524822695,9.586666666666668,52200.00992907801,72.80425531914894,207.31560283687944,32.67433333333334,4.5200463320463315,35.373366013071895,15.492,4.243622902270483,120.43132328308208,6.9371444695259585,11.728636363636362,19.495495495495497
34,Antoine Green,2023,2.0,2.0,1.0,2.0,11.0,1.0,0.0,0.0,1.2,0.002,0.003,0.0,1.0,2.0,0.0,0.0,1.0,0.0,0.0,2.0,2.0,2.0,0.0,1.0,0.0,1.0,0.6,0.0,0.171,191,0.0,2023.0,7.0,2.0,219.0,74.0,199.0,24,12,5,0,0.706,0.0,2.0,2.0,1.0,1.0,2.0,2.0,11.0,11.0,1.0,1.0,0.0,0.0,0.0,0.0,1.2000000476837158,1.2000000476837158,1.0,1.0,0.0,0.0,2.0,2.0,2.0,2.0,191.0,191.0,0.0,0.0,0.0,0.0,0.0,1.0,2.0,0.0,0.0,0.0,2.0,0.0,1.0,0.0,1.0,0.6,5.0,5.0,17709.69645390071,20112021.9964539,2011.186524822695,72.68675177304964,207.25886524822695,9.586666666666668,52200.00992907801,72.80425531914894,207.31560283687944,32.67433333333334,4.5200463320463315,35.373366013071895,15.492,4.243622902270483,120.43132328308208,6.9371444695259585,11.728636363636362,19.495495495495497
35,Antoine Wesley,2021,2.0,32.0,19.0,208.0,317.0,61.0,3.0,0.0,57.8,0.065,0.048,0.094,6.5,10.95,0.0,0.0,19.0,3.0,0.16,208.0,10.95,8.0,0.0,26.0,0.0,26.0,7.22,0.0,0.439,488,0.019,2019.0,8.0,48.0,263.0,76.0,206.0,24,11,6,0,0.647,2.0,32.0,16.0,19.0,9.5,208.0,104.0,317.0,158.5,61.0,30.5,3.0,1.5,0.0,0.0,57.79999923706055,28.899999618530277,19.0,9.5,3.0,1.5,208.0,104.0,8.0,4.0,488.0,244.0,0.0,0.0,0.0,0.0,0.094,6.5,10.95,0.0,0.0,0.16,10.95,0.0,26.0,0.0,26.0,7.22,1.0,1.0,17709.69645390071,20112021.9964539,2011.186524822695,72.68675177304964,207.25886524822695,9.586666666666668,52200.00992907801,72.80425531914894,207.31560283687944,32.67433333333334,4.5200463320463315,35.373366013071895,15.492,4.243622902270483,120.43132328308208,6.9371444695259585,11.728636363636362,19.495495495495497
36,Antonio Brown,2021,2.0,62.0,42.0,545.0,734.0,190.0,4.0,0.0,121.1,0.129,0.104,0.065,8.79,12.98,0.0,6.0,43.0,4.0,0.09,551.0,12.81,7.0,0.0,77.86,0.86,78.71,17.3,0.0,0.543,608,0.045,2010.0,6.0,26.0,195.0,70.0,185.0,33,13,4,0,0.765,11.0,1273.0,115.72727272727272,843.0,76.63636363636364,10975.0,997.7272727272727,13792.0,1253.8181818181818,3966.0,360.54545454545456,83.0,7.545454545454546,3.0,0.2727272727272727,2443.000009536743,222.0909099578857,879.0,79.90909090909092,84.0,7.636363636363637,11082.0,1007.4545454545456,121.0,11.0,8114.0,737.6363636363636,0.375,0.125,0.125,2.5,0.065,8.62,13.02,0.0,3.11,0.1,12.61,0.17,90.7,0.72,91.59,20.19,6.0,21.0,17085.0,20100195.0,2010.0,70.13,186.0,9.586666666666668,48858.0,70.0,181.0,32.67433333333334,4.56,33.5,13.0,4.18,105.0,6.98,11.728636363636362,19.495495495495497
37,Antonio Callaway,2020,3.0,4.0,2.0,20.0,28.0,3.0,0.0,0.0,4.0,0.006,0.007,0.0,5.0,10.0,0.0,0.0,2.0,0.0,0.0,20.0,10.0,3.0,0.0,6.67,0.0,6.67,1.33,0.0,0.19,191,0.002,2018.0,4.0,5.0,105.0,71.0,200.0,23,10,6,0,0.625,2.0,101.0,50.5,53.0,26.5,697.0,348.5,1274.0,637.0,283.0,141.5,7.0,3.5,1.0,0.5,162.39999961853027,81.19999980926514,55.0,27.5,7.0,3.5,704.0,352.0,23.0,11.5,1487.0,743.5,0.0,0.0,0.0,0.0,0.069,6.9,13.15,0.0,3.5,0.13,12.8,0.0,30.3,0.3,30.61,7.06,1.0,1.0,19989.0,20180105.0,2018.0,71.0,200.0,9.586666666666668,32611.0,71.0,197.0,32.67433333333334,4.41,34.0,15.492,4.243622902270483,121.0,6.9371444695259585,11.728636363636362,19.495495495495497
38,Antonio Gandy-Golden,2020,2.0,7.0,1.0,3.0,79.0,1.0,0.0,0.0,3.5,0.021,0.015,0.0,0.43,3.0,0.0,22.0,2.0,0.0,0.0,25.0,12.5,4.0,0.0,0.75,5.5,6.25,0.88,0.0,0.315,327,0.003,2020.0,4.0,36.0,142.0,76.0,220.0,22,7,9,0,0.438,0.0,7.0,7.0,1.0,1.0,3.0,3.0,79.0,79.0,1.0,1.0,0.0,0.0,0.0,0.0,3.5,3.5,2.0,2.0,0.0,0.0,25.0,25.0,4.0,4.0,327.0,327.0,0.0,0.0,0.0,0.0,0.0,0.43,3.0,0.0,22.0,0.0,12.5,0.0,0.75,5.5,6.25,0.88,1.0,1.0,17709.69645390071,20112021.9964539,2011.186524822695,72.68675177304964,207.25886524822695,9.586666666666668,52200.00992907801,72.80425531914894,207.31560283687944,32.67433333333334,4.5200463320463315,35.373366013071895,15.492,4.243622902270483,120.43132328308208,6.9371444695259585,11.728636363636362,19.495495495495497
39,ArDarius Stewart,2017,2.0,13.0,6.0,82.0,112.0,19.0,0.0,0.0,16.9,0.025,0.024,0.0,6.31,13.67,0.0,3.86,13.0,0.0,0.0,109.0,8.38,9.0,0.0,9.11,3.0,12.11,1.88,0.0,0.238,230,0.013,2017.0,3.0,15.0,79.0,72.0,205.0,24,5,11,0,0.312,0.0,13.0,13.0,6.0,6.0,82.0,82.0,112.0,112.0,19.0,19.0,0.0,0.0,0.0,0.0,16.899999618530273,16.899999618530273,13.0,13.0,0.0,0.0,109.0,109.0,9.0,9.0,230.0,230.0,0.0,0.0,0.0,0.0,0.0,6.31,13.67,0.0,3.86,0.0,8.38,0.0,9.11,3.0,12.11,1.88,1.0,1.0,19914.0,20170079.0,2017.0,71.25,204.0,9.586666666666668,35487.0,71.0,205.0,32.67433333333334,4.49,34.0,15.492,4.21,124.0,6.9371444695259585,11.728636363636362,20.0
40,Armon Binns,2012,2.0,40.0,24.0,277.0,348.0,112.0,1.0,1.0,54.7,0.074,0.069,0.025,6.92,11.54,0.0,0.0,24.0,1.0,0.04,277.0,11.54,6.0,0.0,46.17,0.0,46.17,9.12,0.0,0.561,558,0.03,2011.0,8.0,48.0,263.0,75.0,211.0,23,10,6,0,0.625,1.0,40.0,40.0,24.0,24.0,277.0,277.0,348.0,348.0,112.0,112.0,1.0,1.0,1.0,1.0,54.70000076293945,54.70000076293945,24.0,24.0,1.0,1.0,277.0,277.0,6.0,6.0,558.0,558.0,0.0,0.0,0.0,0.0,0.025,6.92,11.54,0.0,0.0,0.04,11.54,0.0,46.17,0.0,46.17,9.12,3.0,3.0,17366.0,20110601.0,2011.0,75.0,209.0,9.586666666666668,45221.0,75.0,211.0,32.67433333333334,4.5,31.5,13.0,4.31,118.0,6.86,11.728636363636362,19.495495495495497
41,Arrelious Benn,2017,2.0,2.0,1.0,12.0,14.0,2.0,0.0,0.0,2.2,0.003,0.003,0.0,6.0,12.0,0.0,0.0,1.0,0.0,0.0,12.0,12.0,2.0,0.0,6.0,0.0,6.0,1.1,0.0,0.129,137,0.001,2010.0,2.0,7.0,39.0,74.0,228.0,29,10,6,0,0.625,7.0,18.0,2.571428571428572,10.0,1.4285714285714286,154.0,22.0,147.0,21.0,78.0,11.142857142857142,1.0,0.1428571428571428,0.0,0.0,33.00000023841858,4.714285748345511,13.0,1.8571428571428568,1.0,0.1428571428571428,170.0,24.285714285714285,13.0,1.8571428571428568,401.0,57.285714285714285,0.0,0.0,0.0,0.0,0.056,8.56,15.4,0.0,5.33,0.08,13.08,0.0,11.85,1.23,13.08,2.54,2.0,8.0,17075.0,20100039.0,2010.0,73.0,219.0,9.586666666666668,61801.0,74.0,228.0,32.67433333333334,4.57,37.0,20.0,4.243622902270483,118.0,6.9371444695259585,11.728636363636362,19.495495495495497
42,Ashton Dulin,2022,2.0,22.0,15.0,207.0,252.0,35.0,1.0,0.0,42.5,0.039,0.033,0.045,9.41,13.8,0.0,4.0,17.0,1.0,0.06,215.0,12.65,7.0,0.0,29.57,1.14,30.71,6.07,0.0,0.283,311,0.023,2019.0,8.0,48.0,263.0,74.0,215.0,25,4,13,1,0.222,3.0,52.0,17.333333333333332,33.0,11.0,450.0,150.0,581.0,193.66666666666663,136.0,45.333333333333336,3.0,1.0,0.0,0.0,101.099999666214,33.699999888738,40.0,13.333333333333334,3.0,1.0,501.0,167.0,30.0,10.0,904.0,301.3333333333333,0.0,0.0,0.0,0.0,0.058,8.65,13.64,0.0,7.29,0.08,12.52,0.0,15.0,1.7,16.7,3.37,1.0,2.0,20314.0,20190437.0,2019.0,73.0,215.0,9.586666666666668,44709.0,73.0,215.0,32.67433333333334,4.43,38.0,13.0,4.22,121.0,7.0,11.728636363636362,19.495495495495497
43,Auden Tate,2021,2.0,4.0,3.0,39.0,45.0,21.0,1.0,0.0,12.9,0.01,0.007,0.25,9.75,13.0,0.0,0.0,3.0,1.0,0.33,39.0,13.0,4.0,0.0,9.75,0.0,9.75,3.22,0.0,0.276,286,0.004,2018.0,7.0,35.0,253.0,77.0,228.0,24,10,7,0,0.588,3.0,118.0,39.333333333333336,61.0,20.33333333333333,799.0,266.3333333333333,1307.0,435.6666666666667,215.0,71.66666666666667,3.0,1.0,1.0,0.3333333333333333,155.89999961853027,51.96666653951009,61.0,20.33333333333333,3.0,1.0,799.0,266.3333333333333,28.0,9.333333333333334,1620.0,540.0,0.0,0.0,0.0,0.0,0.025,6.77,13.1,0.0,0.0,0.05,13.1,0.0,28.54,0.0,28.54,5.57,5.0,8.0,17709.69645390071,20112021.9964539,2011.186524822695,72.68675177304964,207.25886524822695,9.586666666666668,52200.00992907801,72.80425531914894,207.31560283687944,32.67433333333334,4.5200463320463315,35.373366013071895,15.492,4.243622902270483,120.43132328308208,6.9371444695259585,11.728636363636362,19.495495495495497
44,Austin Carr,2020,3.0,4.0,3.0,27.0,32.0,11.0,1.0,0.0,11.7,0.006,0.006,0.25,6.75,9.0,0.0,0.0,3.0,1.0,0.33,27.0,9.0,4.0,0.0,6.75,0.0,6.75,2.92,0.0,0.23,235,0.003,2017.0,8.0,48.0,263.0,73.0,195.0,27,12,4,0,0.75,3.0,22.0,7.333333333333333,13.0,4.333333333333333,133.0,44.333333333333336,204.0,68.0,37.0,12.333333333333334,3.0,1.0,0.0,0.0,44.30000054836273,14.766666849454245,13.0,4.333333333333333,3.0,1.0,133.0,44.333333333333336,15.0,5.0,983.0,327.6666666666667,0.0,0.0,0.0,0.0,0.136,6.05,10.23,0.0,0.0,0.23,10.23,0.0,8.87,0.0,8.87,2.95,5.0,8.0,17709.69645390071,20112021.9964539,2011.186524822695,72.68675177304964,207.25886524822695,9.586666666666668,52200.00992907801,72.80425531914894,207.31560283687944,32.67433333333334,4.5200463320463315,35.373366013071895,15.492,4.243622902270483,120.43132328308208,6.9371444695259585,11.728636363636362,19.495495495495497
45,Austin Collie,2013,3.0,11.0,6.0,63.0,130.0,4.0,0.0,0.0,12.3,0.024,0.017,0.0,5.73,10.5,0.0,0.0,6.0,0.0,0.0,63.0,10.5,4.0,0.0,15.75,0.0,15.75,3.08,0.0,0.209,234,0.006,2009.0,4.0,27.0,127.0,72.0,204.0,28,12,4,0,0.75,4.0,12.0,3.0,7.0,1.75,69.0,17.25,134.0,33.5,6.0,1.5,0.0,0.0,0.0,0.0,13.90000021457672,3.4750000536441803,7.0,1.75,0.0,0.0,69.0,17.25,5.0,1.25,429.0,107.25,0.0,0.0,0.0,0.0,0.0,5.75,9.86,0.0,0.0,0.0,9.86,0.0,13.8,0.0,13.8,2.78,3.0,3.0,16824.0,20090127.0,2009.0,72.88,200.0,9.586666666666668,84602.0,72.0,204.0,32.67433333333334,4.56,34.0,17.0,4.24,120.0,6.78,11.728636363636362,19.495495495495497
46,Austin Mack,2020,2.0,11.0,7.0,91.0,91.0,37.0,0.0,0.0,16.1,0.018,0.02,0.0,8.27,13.0,0.0,0.0,7.0,0.0,0.0,91.0,13.0,5.0,0.0,18.2,0.0,18.2,3.22,0.0,0.279,265,0.011,2020.0,8.0,48.0,263.0,74.0,215.0,23,6,10,0,0.375,0.0,11.0,11.0,7.0,7.0,91.0,91.0,91.0,91.0,37.0,37.0,0.0,0.0,0.0,0.0,16.100000381469727,16.100000381469727,7.0,7.0,0.0,0.0,91.0,91.0,5.0,5.0,265.0,265.0,0.0,0.0,0.0,0.0,0.0,8.27,13.0,0.0,0.0,0.0,13.0,0.0,18.2,0.0,18.2,3.22,4.0,9.0,17709.69645390071,20112021.9964539,2011.186524822695,72.68675177304964,207.25886524822695,9.586666666666668,52200.00992907801,72.80425531914894,207.31560283687944,32.67433333333334,4.5200463320463315,35.373366013071895,15.492,4.243622902270483,120.43132328308208,6.9371444695259585,11.728636363636362,19.495495495495497
47,Austin Trammell,2023,1.0,7.0,4.0,29.0,25.0,35.0,0.0,0.0,6.9,0.005,0.012,0.0,4.14,7.25,0.0,0.0,4.0,0.0,0.0,29.0,7.25,2.0,0.0,14.5,0.0,14.5,3.45,0.0,0.085,92,0.003,2021.0,8.0,48.0,263.0,70.0,185.0,25,10,7,0,0.588,2.0,11.0,5.5,6.0,3.0,42.0,21.0,55.0,27.5,35.0,17.5,0.0,0.0,0.0,0.0,10.200000047683716,5.100000023841858,6.0,3.0,0.0,0.0,42.0,21.0,4.0,2.0,247.0,123.5,0.0,0.0,0.0,0.0,0.0,3.82,7.0,0.0,0.0,0.0,7.0,0.0,10.5,0.0,10.5,2.55,1.0,23.0,17709.69645390071,20112021.9964539,2011.186524822695,72.68675177304964,207.25886524822695,9.586666666666668,52200.00992907801,72.80425531914894,207.31560283687944,32.67433333333334,4.5200463320463315,35.373366013071895,15.492,4.243622902270483,120.43132328308208,6.9371444695259585,11.728636363636362,19.495495495495497
48,Ben Obomanu,2013,3.0,1.0,1.0,8.0,6.0,2.0,0.0,0.0,1.8,0.001,0.002,0.0,8.0,8.0,0.0,0.0,1.0,0.0,0.0,8.0,8.0,1.0,0.0,8.0,0.0,8.0,1.8,0.0,0.315,318,0.001,2006.0,7.0,41.0,249.0,73.0,204.0,30,8,8,0,0.5,7.0,10.0,1.4285714285714286,5.0,0.7142857142857143,66.0,9.428571428571429,138.0,19.714285714285715,23.0,3.2857142857142856,0.0,0.0,0.0,0.0,12.699999570846558,1.81428565297808,6.0,0.8571428571428572,0.0,0.0,77.0,11.0,6.0,0.8571428571428571,602.0,86.0,0.0,0.0,0.0,0.0,0.0,6.6,13.2,0.0,11.0,0.0,12.83,0.0,11.0,1.83,12.83,2.12,2.0,2.0,16139.0,20060249.0,2006.0,73.0,205.0,9.586666666666668,36849.0,73.0,204.0,32.67433333333334,4.45,38.0,15.492,4.21,116.0,7.18,11.728636363636362,19.495495495495497
49,Ben Skowronek,2023,2.0,12.0,8.0,66.0,88.0,30.0,1.0,0.0,21.5,0.019,0.02,0.083,5.5,8.25,0.0,4.5,10.0,1.0,0.1,75.0,7.5,8.0,0.0,8.25,1.12,9.38,2.69,0.0,0.186,202,0.007,2021.0,7.0,21.0,249.0,75.0,224.0,26,10,7,0,0.588,2.0,93.0,46.5,58.0,29.0,575.0,287.5,773.0,386.5,225.0,112.5,1.0,0.5,0.0,0.0,130.10000228881836,65.05000114440918,61.0,30.5,2.0,1.0,601.0,300.5,29.0,14.5,1258.0,629.0,0.0,0.0,0.0,0.0,0.011,6.18,9.91,0.333,8.67,0.03,9.85,0.0,19.83,0.9,20.72,4.49,4.0,10.0,17709.69645390071,20112021.9964539,2011.186524822695,72.68675177304964,207.25886524822695,9.586666666666668,52200.00992907801,72.80425531914894,207.31560283687944,32.67433333333334,4.5200463320463315,35.373366013071895,15.492,4.243622902270483,120.43132328308208,6.9371444695259585,11.728636363636362,19.495495495495497
50,Bennie Fowler,2020,2.0,6.0,2.0,11.0,47.0,1.0,0.0,0.0,3.1,0.009,0.009,0.0,1.83,5.5,0.0,0.0,2.0,0.0,0.0,11.0,5.5,1.0,0.0,11.0,0.0,11.0,3.1,0.0,0.162,166,0.001,2014.0,8.0,48.0,263.0,73.0,212.0,29,12,4,0,0.75,6.0,175.0,29.166666666666668,97.0,16.166666666666668,1103.0,183.83333333333331,1741.0,290.1666666666667,374.0,62.333333333333336,7.0,1.1666666666666667,0.0,0.0,251.300000667572,41.88333344459534,98.0,16.333333333333336,7.0,1.1666666666666667,1123.0,187.16666666666669,56.0,9.333333333333334,2430.0,405.0,0.0,0.0,0.0,0.0,0.04,6.3,11.37,0.0,20.0,0.07,11.46,0.0,19.7,0.36,20.05,4.49,1.0,13.0,18358.0,20140531.0,2014.0,73.25,217.0,9.586666666666668,48824.0,73.0,212.0,32.67433333333334,4.52,36.0,15.492,4.18,125.0,7.06,11.728636363636362,19.495495495495497
51,Bernard Reedy,2017,2.0,2.0,2.0,21.0,13.0,8.0,0.0,0.0,5.8,0.002,0.003,0.0,10.5,10.5,0.0,5.67,5.0,0.0,0.0,38.0,7.6,4.0,0.0,5.25,4.25,9.5,1.45,0.0,0.045,46,0.004,2014.0,8.0,48.0,263.0,69.0,175.0,26,5,11,0,0.312,3.0,2.0,0.6666666666666666,2.0,0.6666666666666666,21.0,7.0,13.0,4.333333333333333,8.0,2.6666666666666665,0.0,0.0,0.0,0.0,5.800000190734863,1.933333396911621,5.0,1.6666666666666663,0.0,0.0,38.0,12.666666666666668,4.0,1.3333333333333333,46.0,15.333333333333334,0.0,0.0,0.0,0.0,0.0,10.5,10.5,0.0,5.67,0.0,7.6,0.0,5.25,4.25,9.5,1.45,4.0,19.0,17709.69645390071,20112021.9964539,2011.186524822695,72.68675177304964,207.25886524822695,9.586666666666668,52200.00992907801,72.80425531914894,207.31560283687944,32.67433333333334,4.5200463320463315,35.373366013071895,15.492,4.243622902270483,120.43132328308208,6.9371444695259585,11.728636363636362,19.495495495495497
52,Bo Melton,2023,2.0,24.0,16.0,218.0,267.0,37.0,1.0,0.0,45.9,0.059,0.04,0.042,9.08,13.62,0.0,7.0,19.0,1.0,0.05,239.0,12.58,4.0,0.0,54.5,5.25,59.75,11.48,0.0,0.426,443,0.024,2022.0,7.0,8.0,229.0,71.0,189.0,24,9,8,0,0.529,1.0,24.0,24.0,16.0,16.0,218.0,218.0,267.0,267.0,37.0,37.0,1.0,1.0,0.0,0.0,45.900001525878906,45.900001525878906,19.0,19.0,1.0,1.0,239.0,239.0,4.0,4.0,443.0,443.0,0.0,0.0,0.0,0.0,0.042,9.08,13.62,0.0,7.0,0.05,12.58,0.0,54.5,5.25,59.75,11.48,1.0,2.0,17709.69645390071,20112021.9964539,2011.186524822695,72.68675177304964,207.25886524822695,9.586666666666668,52200.00992907801,72.80425531914894,207.31560283687944,32.67433333333334,4.5200463320463315,35.373366013071895,15.492,4.243622902270483,120.43132328308208,6.9371444695259585,11.728636363636362,19.495495495495497
53,Bobo Wilson,2019,2.0,11.0,3.0,35.0,135.0,3.0,1.0,0.0,12.5,0.024,0.019,0.091,3.18,11.67,0.0,0.0,3.0,1.0,0.33,35.0,11.67,5.0,0.0,7.0,0.0,7.0,2.5,0.0,0.28,300,0.003,2017.0,8.0,48.0,263.0,69.0,186.0,24,7,9,0,0.438,2.0,17.0,8.5,8.0,4.0,105.0,52.5,207.0,103.5,23.0,11.5,2.0,1.0,0.0,0.0,31.300000190734863,15.650000095367432,11.0,5.5,2.0,1.0,113.0,56.5,11.0,5.5,609.0,304.5,0.0,0.0,0.0,0.0,0.118,6.18,13.12,0.0,2.67,0.18,10.27,0.0,9.55,0.73,10.27,2.85,2.0,2.0,17709.69645390071,20112021.9964539,2011.186524822695,72.68675177304964,207.25886524822695,9.586666666666668,52200.00992907801,72.80425531914894,207.31560283687944,32.67433333333334,4.5200463320463315,35.373366013071895,15.492,4.243622902270483,120.43132328308208,6.9371444695259585,11.728636363636362,19.495495495495497
54,Brad Smith,2014,2.0,3.0,1.0,11.0,17.0,13.0,0.0,0.0,2.1,0.003,0.005,0.0,3.67,11.0,0.0,0.0,1.0,0.0,0.0,11.0,11.0,3.0,0.0,3.67,0.0,3.67,0.7,0.0,0.068,75,0.001,2006.0,4.0,6.0,103.0,74.0,213.0,31,10,6,0,0.625,8.0,27.0,3.375,17.0,2.125,190.0,23.75,220.0,27.5,73.0,9.125,2.0,0.25,0.0,0.0,63.79999923706055,7.974999904632568,35.0,4.375,3.0,0.375,308.0,38.5,21.0,2.625,436.0,54.5,0.0,0.5,0.0,0.0,0.074,7.04,11.18,0.062,7.38,0.09,8.8,0.0,9.05,5.62,14.67,3.04,9.0,18.0,16181.0,20060103.0,2006.0,74.13,213.0,9.586666666666668,65211.0,74.0,213.0,32.67433333333334,4.51,39.5,15.492,4.33,128.0,7.0,11.728636363636362,24.0
55,Bradley Marquez,2016,2.0,7.0,3.0,37.0,49.0,22.0,0.0,0.0,6.9,0.011,0.012,0.0,5.29,12.33,0.0,2.0,4.0,0.0,0.0,39.0,9.75,7.0,0.0,5.29,0.29,5.57,0.99,0.0,0.116,110,0.005,2015.0,8.0,48.0,263.0,70.0,205.0,24,4,12,0,0.25,1.0,7.0,7.0,3.0,3.0,37.0,37.0,49.0,49.0,22.0,22.0,0.0,0.0,0.0,0.0,6.900000095367432,6.900000095367432,4.0,4.0,0.0,0.0,39.0,39.0,7.0,7.0,110.0,110.0,0.0,0.0,0.0,0.0,0.0,5.29,12.33,0.0,2.0,0.0,9.75,0.0,5.29,0.29,5.57,0.99,1.0,2.0,17709.69645390071,20112021.9964539,2011.186524822695,72.68675177304964,207.25886524822695,9.586666666666668,52200.00992907801,72.80425531914894,207.31560283687944,32.67433333333334,4.5200463320463315,35.373366013071895,15.492,4.243622902270483,120.43132328308208,6.9371444695259585,11.728636363636362,19.495495495495497
56,Bralon Addison,2016,3.0,1.0,1.0,11.0,3.0,8.0,0.0,0.0,2.5,0.001,0.002,0.0,11.0,11.0,0.0,4.0,2.0,0.0,0.0,15.0,7.5,1.0,0.0,11.0,4.0,15.0,2.5,0.0,0.02,19,0.002,2016.0,8.0,48.0,263.0,69.0,197.0,23,3,13,0,0.188,0.0,1.0,1.0,1.0,1.0,11.0,11.0,3.0,3.0,8.0,8.0,0.0,0.0,0.0,0.0,2.5,2.5,2.0,2.0,0.0,0.0,15.0,15.0,1.0,1.0,19.0,19.0,0.0,0.0,0.0,0.0,0.0,11.0,11.0,0.0,4.0,0.0,7.5,0.0,11.0,4.0,15.0,2.5,2.0,2.0,19315.0,20160515.0,2016.0,69.25,197.0,9.586666666666668,97403.0,70.0,190.0,32.67433333333334,4.66,34.5,13.0,4.14,116.0,6.95,11.728636363636362,19.495495495495497
57,Brandin Cooks,2023,1.0,82.0,54.0,659.0,1069.0,125.0,8.0,0.0,171.4,0.185,0.118,0.098,8.04,12.2,0.0,7.0,59.0,8.0,0.14,694.0,11.76,16.0,0.0,41.19,2.19,43.38,10.71,0.0,0.733,809,0.063,2014.0,1.0,20.0,20.0,70.0,189.0,30,12,5,0,0.706,9.0,1048.0,116.44444444444444,684.0,76.0,9268.0,1029.7777777777778,12859.0,1428.7777777777778,2690.0,298.8888888888889,58.0,6.444444444444445,0.0,0.0,2005.2000122070312,222.8000013563368,739.0,82.11111111111111,60.0,6.666666666666667,9612.0,1068.0,146.0,16.22222222222222,8462.0,940.2222222222222,0.0,0.0,0.0,0.0,0.055,8.84,13.55,0.036,6.25,0.08,13.01,0.0,63.48,2.36,65.84,13.73,2.0,20.0,18320.0,20140020.0,2014.0,69.75,189.0,9.586666666666668,97331.0,70.0,189.0,32.67433333333334,4.33,36.0,16.0,3.81,120.0,6.76,11.728636363636362,19.495495495495497
58,Brandon Aiyuk,2023,1.0,105.0,75.0,1342.0,1467.0,362.0,7.0,1.0,248.2,0.385,0.22,0.067,12.78,17.89,0.0,0.0,75.0,7.0,0.09,1342.0,17.89,16.0,0.0,83.88,0.0,83.88,15.51,0.0,0.815,811,0.118,2020.0,1.0,25.0,25.0,72.0,200.0,25,12,5,0,0.706,3.0,401.0,133.66666666666666,269.0,89.66666666666667,3944.0,1314.6666666666667,4325.0,1441.6666666666667,1375.0,458.3333333333333,25.0,8.333333333333334,3.0,1.0,828.1000061035156,276.03333536783856,282.0,94.0,27.0,9.0,4061.0,1353.6666666666667,61.0,20.33333333333333,3506.0,1168.6666666666667,0.0,0.0,0.0,0.0,0.062,9.84,14.66,0.154,9.0,0.1,14.4,0.0,64.66,1.92,66.57,13.58,1.0,4.0,17709.69645390071,20112021.9964539,2011.186524822695,72.68675177304964,207.25886524822695,9.586666666666668,52200.00992907801,72.80425531914894,207.31560283687944,32.67433333333334,4.5200463320463315,35.373366013071895,15.492,4.243622902270483,120.43132328308208,6.9371444695259585,11.728636363636362,19.495495495495497
59,Brandon Coleman,2017,2.0,37.0,23.0,364.0,325.0,143.0,4.0,2.0,77.4,0.059,0.053,0.108,9.84,15.83,0.0,0.0,23.0,4.0,0.17,364.0,15.83,14.0,0.0,26.0,0.0,26.0,5.53,0.0,0.629,615,0.034,2014.0,8.0,48.0,263.0,78.0,225.0,25,11,5,0,0.688,3.0,124.0,41.333333333333336,79.0,26.33333333333333,1099.0,366.3333333333333,1430.0,476.6666666666667,337.0,112.33333333333331,9.0,3.0,2.0,0.6666666666666666,236.9000015258789,78.96666717529297,79.0,26.33333333333333,9.0,3.0,1099.0,366.3333333333333,43.0,14.333333333333334,1362.0,454.0,0.0,0.0,0.0,0.0,0.073,8.86,13.91,0.0,0.0,0.11,13.91,0.0,25.56,0.0,25.56,5.51,1.0,1.0,18318.0,20140658.0,2014.0,78.0,225.0,9.586666666666668,7102.0,78.0,225.0,32.67433333333334,4.56,32.5,21.0,4.51,120.43132328308208,7.33,11.728636363636362,19.495495495495497
60,Brandon Gibson,2014,2.0,51.0,29.0,295.0,488.0,109.0,1.0,0.0,64.5,0.113,0.094,0.02,5.78,10.17,0.0,0.0,29.0,1.0,0.03,295.0,10.17,14.0,0.0,21.07,0.0,21.07,4.61,0.0,0.524,538,0.03,2009.0,6.0,21.0,194.0,72.0,210.0,27,8,8,0,0.5,5.0,94.0,18.8,59.0,11.8,621.0,124.2,861.0,172.2,222.0,44.4,5.0,1.0,0.0,0.0,151.0999984741211,30.219999694824217,59.0,11.8,5.0,1.0,621.0,124.2,21.0,4.2,1111.0,222.2,0.0,0.0,0.0,0.0,0.053,6.61,10.53,0.0,0.0,0.08,10.53,0.0,29.57,0.0,29.57,7.2,3.0,10.0,17709.69645390071,20112021.9964539,2011.186524822695,72.68675177304964,207.25886524822695,9.586666666666668,52200.00992907801,72.80425531914894,207.31560283687944,32.67433333333334,4.5200463320463315,35.373366013071895,15.492,4.243622902270483,120.43132328308208,6.9371444695259585,11.728636363636362,19.495495495495497
61,Brandon Johnson,2023,2.0,31.0,19.0,286.0,328.0,89.0,4.0,0.0,71.6,0.067,0.051,0.129,9.23,15.05,0.0,0.0,19.0,4.0,0.21,286.0,15.05,10.0,0.0,28.6,0.0,28.6,7.16,0.0,0.418,418,0.033,2022.0,8.0,48.0,263.0,74.0,195.0,25,8,9,0,0.471,1.0,45.0,45.0,25.0,25.0,328.0,328.0,508.0,508.0,102.0,102.0,6.0,6.0,0.0,0.0,93.79999923706056,93.79999923706056,25.0,25.0,6.0,6.0,328.0,328.0,14.0,14.0,899.0,899.0,0.0,0.0,0.0,0.0,0.133,7.29,13.12,0.0,0.0,0.24,13.12,0.0,23.43,0.0,23.43,6.7,1.0,1.0,16074.0,20060142.0,2006.0,76.88,228.0,9.586666666666668,40292.0,77.0,245.0,32.67433333333334,4.52,37.0,11.0,4.34,118.0,7.17,11.728636363636362,19.495495495495497
62,Brandon LaFell,2017,1.0,89.0,52.0,548.0,774.0,239.0,3.0,0.0,124.8,0.165,0.153,0.034,6.16,10.54,0.0,0.0,52.0,3.0,0.06,548.0,10.54,16.0,0.0,34.25,0.0,34.25,7.8,0.0,0.894,811,0.07,2010.0,3.0,14.0,78.0,75.0,210.0,31,7,9,0,0.438,7.0,550.0,78.57142857142857,320.0,45.71428571428572,4182.0,597.4285714285714,5858.0,836.8571428571429,1744.0,249.14285714285717,28.0,4.0,1.0,0.1428571428571428,910.2000045776368,130.02857208251953,330.0,47.142857142857146,28.0,4.0,4252.0,607.4285714285714,86.0,12.285714285714286,5222.0,746.0,0.0,0.0,0.0,0.0,0.051,7.6,13.07,0.0,7.0,0.08,12.88,0.0,48.63,0.81,49.44,10.58,1.0,18.0,17197.0,20100078.0,2010.0,74.5,211.0,9.586666666666668,70803.0,75.0,210.0,32.67433333333334,4.58,36.0,15.492,4.23,115.0,6.81,11.728636363636362,19.495495495495497
63,Brandon Lloyd,2014,2.0,35.0,14.0,294.0,677.0,74.0,2.0,0.0,55.4,0.178,0.073,0.057,8.4,21.0,0.0,0.0,14.0,2.0,0.14,294.0,21.0,12.0,0.0,24.5,0.0,24.5,4.62,0.0,0.358,355,0.034,2003.0,4.0,27.0,124.0,72.0,200.0,33,8,8,0,0.5,11.0,165.0,15.0,88.0,8.0,1205.0,109.54545454545456,2417.0,219.72727272727272,242.0,22.0,6.0,0.5454545454545454,0.0,0.0,244.50000762939453,22.227273420854047,88.0,8.0,6.0,0.5454545454545454,1205.0,109.54545454545456,28.0,2.5454545454545454,1337.0,121.54545454545456,0.0,0.0,0.0,0.0,0.036,7.3,13.69,0.0,0.0,0.07,13.69,0.0,43.04,0.0,43.04,8.73,5.0,15.0,15269.0,20030124.0,2003.0,72.1,184.0,9.586666666666668,61801.0,72.0,200.0,32.67433333333334,4.61,36.0,15.492,4.243622902270483,120.43132328308208,6.9371444695259585,11.728636363636362,19.495495495495497
64,Brandon Marshall,2018,2.0,23.0,11.0,136.0,257.0,23.0,1.0,0.0,30.6,0.063,0.053,0.043,5.91,12.36,0.0,0.0,11.0,1.0,0.09,136.0,12.36,6.0,0.0,22.67,0.0,22.67,5.1,0.0,0.423,418,0.015,2006.0,4.0,22.0,119.0,77.0,232.0,34,10,6,0,0.625,12.0,823.0,68.58333333333333,476.0,39.66666666666666,6112.0,509.3333333333333,9940.0,828.3333333333334,1530.0,127.5,52.0,4.333333333333333,4.0,0.3333333333333333,1387.0000171661377,115.5833347638448,477.0,39.75,52.0,4.333333333333333,6110.0,509.1666666666666,87.0,7.25,5856.0,488.0,0.0,0.0,0.0,0.0,0.063,7.43,12.84,0.0,-2.0,0.11,12.81,0.0,70.25,-0.02,70.23,15.94,4.0,28.0,17833.0,20120142.0,2012.0,73.38,242.0,9.586666666666668,89557.0,73.0,250.0,32.67433333333334,4.72,30.5,28.0,4.09,108.0,7.05,11.728636363636362,19.495495495495497
65,Brandon Powell,2023,2.0,44.0,29.0,324.0,332.0,104.0,1.0,0.0,69.1,0.099,0.085,0.023,7.36,11.17,0.0,3.4,34.0,1.0,0.03,341.0,10.03,13.0,0.0,24.92,1.31,26.23,5.32,0.0,0.403,428,0.032,2018.0,8.0,48.0,263.0,68.0,181.0,27,7,10,0,0.412,5.0,111.0,22.2,76.0,15.2,678.0,135.6,520.0,104.0,437.0,87.4,3.0,0.6,1.0,0.2,169.59999656677246,33.919999313354495,101.0,20.2,3.0,0.6,786.0,157.2,43.0,8.6,1212.0,242.4,0.0,0.0,0.0,0.0,0.027,6.11,8.92,0.0,4.32,0.03,7.78,0.0,15.77,2.51,18.28,3.94,2.0,7.0,17709.69645390071,20112021.9964539,2011.186524822695,72.68675177304964,207.25886524822695,9.586666666666668,52200.00992907801,72.80425531914894,207.31560283687944,32.67433333333334,4.5200463320463315,35.373366013071895,15.492,4.243622902270483,120.43132328308208,6.9371444695259585,11.728636363636362,19.495495495495497
66,Brandon Stokley,2013,2.0,21.0,13.0,115.0,174.0,60.0,0.0,0.0,24.5,0.032,0.035,0.0,5.48,8.85,0.0,0.0,13.0,0.0,0.0,115.0,8.85,6.0,0.0,19.17,0.0,19.17,4.08,0.0,0.247,267,0.013,1999.0,4.0,10.0,105.0,72.0,194.0,37,8,8,0,0.5,14.0,80.0,5.714285714285714,58.0,4.142857142857143,659.0,47.07142857142857,763.0,54.5,208.0,14.857142857142858,5.0,0.3571428571428571,0.0,0.0,153.89999389648438,10.99285670689174,58.0,4.142857142857143,5.0,0.3571428571428571,659.0,47.07142857142857,20.0,1.4285714285714286,866.0,61.85714285714285,0.0,0.0,0.0,0.0,0.062,8.24,11.36,0.0,0.0,0.09,11.36,0.0,32.95,0.0,32.95,7.69,9.0,14.0,14290.0,19990105.0,1999.0,73.0,197.0,9.586666666666668,70504.0,72.0,194.0,32.67433333333334,4.49,35.5,15.492,4.01,118.0,7.04,11.728636363636362,19.495495495495497
67,Brandon Tate,2017,1.0,14.0,6.0,81.0,142.0,37.0,1.0,0.0,20.1,0.036,0.026,0.071,5.79,13.5,0.0,0.0,6.0,1.0,0.17,81.0,13.5,5.0,0.0,16.2,0.0,16.2,4.02,0.0,0.183,181,0.01,2009.0,3.0,19.0,83.0,73.0,195.0,30,9,7,0,0.562,8.0,81.0,10.125,47.0,5.875,667.0,83.375,904.0,113.0,234.0,29.25,6.0,0.75,0.0,0.0,156.60000002384186,19.575000002980232,54.0,6.75,6.0,0.75,736.0,92.0,42.0,5.25,1226.0,153.25,0.0,0.0,0.0,0.0,0.074,8.23,14.19,0.0,9.86,0.11,13.63,0.0,15.88,1.64,17.52,3.73,1.0,4.0,17709.69645390071,20112021.9964539,2011.186524822695,72.68675177304964,207.25886524822695,9.586666666666668,52200.00992907801,72.80425531914894,207.31560283687944,32.67433333333334,4.5200463320463315,35.373366013071895,15.492,4.243622902270483,120.43132328308208,6.9371444695259585,11.728636363636362,19.495495495495497
68,Brandon Zylstra,2021,2.0,25.0,18.0,250.0,262.0,118.0,1.0,0.0,49.0,0.057,0.048,0.04,10.0,13.89,0.0,0.0,19.0,1.0,0.05,250.0,13.16,9.0,0.0,27.78,0.0,27.78,5.44,2.08,0.376,413,0.029,2018.0,8.0,48.0,263.0,74.0,215.0,28,5,12,0,0.294,3.0,43.0,14.333333333333334,30.0,10.0,414.0,138.0,520.0,173.33333333333334,151.0,50.333333333333336,1.0,0.3333333333333333,0.0,0.0,77.50000023841858,25.833333412806198,32.0,10.666666666666668,1.0,0.3333333333333333,415.0,138.33333333333334,19.0,6.333333333333333,727.0,242.33333333333331,0.0,0.0,0.0,0.0,0.023,9.63,13.8,0.0,1.0,0.03,12.97,0.0,21.79,0.05,21.84,4.08,1.0,2.0,17709.69645390071,20112021.9964539,2011.186524822695,72.68675177304964,207.25886524822695,9.586666666666668,52200.00992907801,72.80425531914894,207.31560283687944,32.67433333333334,4.5200463320463315,35.373366013071895,15.492,4.243622902270483,120.43132328308208,6.9371444695259585,11.728636363636362,19.495495495495497
69,Braxton Berrios,2023,1.0,33.0,27.0,238.0,229.0,85.0,2.0,0.0,63.9,0.053,0.061,0.061,7.21,8.81,0.0,11.0,28.0,2.0,0.07,249.0,8.89,12.0,0.0,19.83,0.92,20.75,5.33,0.0,0.441,456,0.022,2018.0,6.0,36.0,210.0,69.0,185.0,28,11,6,0,0.647,5.0,198.0,39.6,134.0,26.8,1301.0,260.2,1302.0,260.4,722.0,144.4,7.0,1.4,1.0,0.2,350.2800064086914,70.05600128173828,155.0,31.0,12.0,2.4,1474.0,294.79999999999995,61.0,12.2,1570.0,314.0,1.0,0.0,1.0,2.0,0.035,6.57,9.71,0.2,8.55,0.08,9.51,0.03,21.33,2.8,24.16,5.74,2.0,9.0,19976.0,20180210.0,2018.0,69.0,184.0,9.586666666666668,33124.0,69.0,183.0,32.67433333333334,4.5200463320463315,35.373366013071895,11.0,4.243622902270483,120.43132328308208,6.9371444695259585,11.728636363636362,19.495495495495497
70,Braxton Miller,2017,2.0,29.0,19.0,162.0,239.0,61.0,1.0,0.0,41.3,0.054,0.05,0.034,5.59,8.53,0.0,1.0,20.0,1.0,0.05,163.0,8.15,10.0,0.0,16.2,0.1,16.3,4.13,0.0,0.576,589,0.019,2016.0,3.0,22.0,85.0,74.0,215.0,25,4,12,0,0.25,1.0,57.0,57.0,34.0,34.0,261.0,261.0,441.0,441.0,113.0,113.0,2.0,2.0,0.0,0.0,72.19999885559082,72.19999885559082,38.0,38.0,2.0,2.0,262.0,262.0,19.0,19.0,1160.0,1160.0,0.0,0.0,0.0,0.0,0.035,4.58,7.68,0.0,0.25,0.05,6.89,0.0,13.74,0.05,13.79,3.8,2.0,5.0,19509.0,20160085.0,2016.0,73.38,201.0,9.586666666666668,43210.0,74.0,215.0,32.67433333333334,4.5,35.0,17.0,4.07,123.0,6.65,11.728636363636362,19.495495495495497
71,Braylon Edwards,2012,2.0,35.0,18.0,199.0,486.0,33.0,1.0,0.0,43.9,0.12,0.08,0.029,5.69,11.06,0.0,0.0,18.0,1.0,0.06,199.0,11.06,5.0,0.0,39.8,0.0,39.8,8.78,0.0,0.221,212,0.022,2005.0,1.0,3.0,3.0,75.0,214.0,29,11,5,0,0.688,7.0,35.0,5.0,18.0,2.571428571428572,199.0,28.428571428571427,486.0,69.42857142857143,33.0,4.714285714285714,1.0,0.1428571428571428,0.0,0.0,43.900001525878906,6.271428789411273,18.0,2.571428571428572,1.0,0.1428571428571428,199.0,28.428571428571427,5.0,0.7142857142857143,212.0,30.285714285714285,0.0,0.0,0.0,0.0,0.029,5.69,11.06,0.0,0.0,0.06,11.06,0.0,39.8,0.0,39.8,8.78,5.0,5.0,15753.0,20050003.0,2005.0,74.88,211.0,9.586666666666668,48109.0,75.0,214.0,32.67433333333334,4.45,35.373366013071895,22.0,4.243622902270483,120.43132328308208,6.9371444695259585,11.728636363636362,19.495495495495497
72,Braylon Sanders,2022,3.0,3.0,2.0,17.0,42.0,3.0,0.0,1.0,0.7,0.01,0.006,0.0,5.67,8.5,0.0,0.0,2.0,0.0,0.0,17.0,8.5,2.0,0.0,8.5,0.0,8.5,0.35,0.0,0.19,189,0.002,2022.0,8.0,48.0,263.0,73.0,190.0,23,9,8,0,0.529,0.0,3.0,3.0,2.0,2.0,17.0,17.0,42.0,42.0,3.0,3.0,0.0,0.0,1.0,1.0,0.699999988079071,0.699999988079071,2.0,2.0,0.0,0.0,17.0,17.0,2.0,2.0,189.0,189.0,0.0,0.0,0.0,0.0,0.0,5.67,8.5,0.0,0.0,0.0,8.5,0.0,8.5,0.0,8.5,0.35,5.0,5.0,17709.69645390071,20112021.9964539,2011.186524822695,72.68675177304964,207.25886524822695,9.586666666666668,52200.00992907801,72.80425531914894,207.31560283687944,32.67433333333334,4.5200463320463315,35.373366013071895,15.492,4.243622902270483,120.43132328308208,6.9371444695259585,11.728636363636362,19.495495495495497
73,Breshad Perriman,2022,2.0,19.0,9.0,110.0,269.0,52.0,1.0,1.0,22.3,0.047,0.032,0.053,5.79,12.22,0.0,-3.5,11.0,1.0,0.09,103.0,9.36,8.0,0.0,13.75,-0.88,12.88,2.79,0.0,0.315,360,0.01,2015.0,1.0,26.0,26.0,74.0,215.0,29,8,9,0,0.471,7.0,275.0,39.285714285714285,134.0,19.142857142857142,2176.0,310.85714285714283,4197.0,599.5714285714286,585.0,83.57142857142857,16.0,2.2857142857142856,1.0,0.1428571428571428,446.50000381469727,63.78571483067104,144.0,20.57142857142857,16.0,2.2857142857142856,2195.0,313.57142857142856,70.0,10.0,3241.0,463.0,0.0,0.0,0.0,0.0,0.058,7.91,16.24,0.0,1.9,0.11,15.24,0.0,31.09,0.27,31.36,6.38,4.0,25.0,18803.0,20150026.0,2015.0,74.0,212.0,9.586666666666668,32816.0,74.0,215.0,32.67433333333334,4.5200463320463315,35.373366013071895,15.492,4.243622902270483,120.43132328308208,6.9371444695259585,11.728636363636362,19.495495495495497
74,Brian Hartline,2015,1.0,77.0,46.0,523.0,719.0,166.0,2.0,0.0,110.3,0.169,0.128,0.026,6.79,11.37,0.0,0.0,46.0,2.0,0.04,523.0,11.37,12.0,0.0,43.58,0.0,43.58,9.19,0.0,0.613,636,0.055,2009.0,4.0,8.0,108.0,74.0,200.0,29,3,13,0,0.188,6.0,404.0,67.33333333333333,235.0,39.16666666666666,3107.0,517.8333333333334,4575.0,762.5,807.0,134.5,10.0,1.6666666666666667,1.0,0.1666666666666666,602.7000122070312,100.4500020345052,235.0,39.16666666666666,10.0,1.6666666666666667,3107.0,517.8333333333334,59.0,9.833333333333334,3100.0,516.6666666666666,0.0,0.0,0.0,0.0,0.025,7.69,13.22,0.0,0.0,0.04,13.22,0.0,52.66,0.0,52.66,10.22,5.0,16.0,16882.0,20090108.0,2009.0,73.63,195.0,9.586666666666668,43210.0,74.0,200.0,32.67433333333334,4.52,34.5,15.492,4.12,120.0,6.65,11.728636363636362,19.495495495495497
75,Brian Quick,2018,2.0,3.0,3.0,18.0,17.0,1.0,0.0,0.0,4.8,0.004,0.006,0.0,6.0,6.0,0.0,0.0,3.0,0.0,0.0,18.0,6.0,2.0,0.0,9.0,0.0,9.0,2.4,0.0,0.222,212,0.002,2012.0,2.0,1.0,33.0,75.0,215.0,29,7,9,0,0.438,6.0,88.0,14.666666666666666,50.0,8.333333333333334,658.0,109.66666666666669,967.0,161.16666666666666,205.0,34.166666666666664,3.0,0.5,0.0,0.0,133.8000020980835,22.300000349680584,50.0,8.333333333333334,3.0,0.5,658.0,109.66666666666669,23.0,3.8333333333333335,1027.0,171.16666666666666,0.0,0.0,0.0,0.0,0.034,7.48,13.16,0.0,0.0,0.06,13.16,0.0,28.61,0.0,28.61,5.82,2.0,3.0,17892.0,20120033.0,2012.0,75.5,220.0,9.586666666666668,28608.0,75.0,218.0,32.67433333333334,4.5,34.0,15.0,4.23,119.0,7.1,11.728636363636362,19.495495495495497
76,Brice Butler,2018,2.0,10.0,6.0,60.0,138.0,1.0,1.0,0.0,18.0,0.032,0.019,0.1,6.0,10.0,0.0,0.0,6.0,1.0,0.17,60.0,10.0,4.0,0.0,15.0,0.0,15.0,4.5,0.0,0.377,326,0.008,2013.0,7.0,3.0,209.0,75.0,211.0,28,7,9,0,0.438,5.0,92.0,18.4,49.0,9.8,874.0,174.8,1324.0,264.8,153.0,30.6,7.0,1.4,1.0,0.2,175.4000015258789,35.08000030517578,49.0,9.8,7.0,1.4,874.0,174.8,35.0,7.0,1584.0,316.8,0.0,0.0,0.0,0.0,0.076,9.5,17.84,0.0,0.0,0.14,17.84,0.0,24.97,0.0,24.97,5.01,1.0,12.0,17709.69645390071,20112021.9964539,2011.186524822695,72.68675177304964,207.25886524822695,9.586666666666668,52200.00992907801,72.80425531914894,207.31560283687944,32.67433333333334,4.5200463320463315,35.373366013071895,15.492,4.243622902270483,120.43132328308208,6.9371444695259585,11.728636363636362,19.495495495495497
77,Britain Covey,2023,1.0,6.0,4.0,42.0,52.0,26.0,0.0,0.0,8.2,0.01,0.009,0.0,7.0,10.5,0.0,0.0,4.0,0.0,0.0,42.0,10.5,2.0,0.0,21.0,0.0,21.0,4.1,0.0,0.109,120,0.004,2022.0,8.0,48.0,263.0,68.0,173.0,26,11,6,0,0.647,1.0,6.0,6.0,4.0,4.0,42.0,42.0,52.0,52.0,26.0,26.0,0.0,0.0,0.0,0.0,8.199999809265137,8.199999809265137,4.0,4.0,0.0,0.0,42.0,42.0,2.0,2.0,120.0,120.0,0.0,0.0,0.0,0.0,0.0,7.0,10.5,0.0,0.0,0.0,10.5,0.0,21.0,0.0,21.0,4.1,1.0,2.0,17709.69645390071,20112021.9964539,2011.186524822695,72.68675177304964,207.25886524822695,9.586666666666668,52200.00992907801,72.80425531914894,207.31560283687944,32.67433333333334,4.5200463320463315,35.373366013071895,15.492,4.243622902270483,120.43132328308208,6.9371444695259585,11.728636363636362,19.495495495495497
78,Brittan Golden,2017,3.0,9.0,5.0,70.0,63.0,49.0,0.0,0.0,12.0,0.013,0.014,0.0,7.78,14.0,0.0,0.0,5.0,0.0,0.0,70.0,14.0,4.0,0.0,17.5,0.0,17.5,3.0,0.0,0.121,126,0.008,2012.0,8.0,48.0,263.0,72.0,196.0,29,8,8,0,0.5,5.0,34.0,6.8,18.0,3.6,293.0,58.6,428.0,85.6,136.0,27.2,1.0,0.2,1.0,0.2,50.30000114440918,10.060000228881837,18.0,3.6,1.0,0.2,293.0,58.6,17.0,3.4,572.0,114.4,0.0,0.0,0.0,0.0,0.029,8.62,16.28,0.0,0.0,0.06,16.28,0.0,17.24,0.0,17.24,2.96,3.0,13.0,17709.69645390071,20112021.9964539,2011.186524822695,72.68675177304964,207.25886524822695,9.586666666666668,52200.00992907801,72.80425531914894,207.31560283687944,32.67433333333334,4.5200463320463315,35.373366013071895,15.492,4.243622902270483,120.43132328308208,6.9371444695259585,11.728636363636362,19.495495495495497
79,Bruce Ellington,2018,2.0,42.0,31.0,224.0,204.0,108.0,1.0,0.0,59.6,0.046,0.072,0.024,5.33,7.23,0.0,2.0,33.0,1.0,0.03,226.0,6.85,3.0,0.0,74.67,0.67,75.33,19.87,2.08,0.57,584,0.023,2014.0,4.0,6.0,106.0,69.0,200.0,27,11,5,0,0.688,4.0,131.0,32.75,79.0,19.75,769.0,192.25,1034.0,258.5,387.0,96.75,5.0,1.25,0.0,0.0,197.29999542236328,49.32499885559082,91.0,22.75,6.0,1.5,823.0,205.75,31.0,7.75,1630.0,407.5,0.0,0.0,0.0,0.0,0.038,5.87,9.73,0.091,4.91,0.07,9.04,0.0,24.81,1.74,26.55,6.36,5.0,17.0,18342.0,20140106.0,2014.0,69.38,197.0,9.586666666666668,29208.0,69.0,197.0,32.67433333333334,4.45,39.5,15.0,3.95,120.0,6.69,11.728636363636362,19.495495495495497
80,Bryan Edwards,2022,2.0,5.0,3.0,15.0,39.0,9.0,0.0,0.0,4.5,0.008,0.008,0.0,3.0,5.0,0.0,0.0,3.0,0.0,0.0,15.0,5.0,4.0,0.0,3.75,0.0,3.75,1.12,0.0,0.2,200,0.002,2020.0,3.0,17.0,81.0,75.0,215.0,24,7,10,0,0.412,2.0,80.0,40.0,48.0,24.0,779.0,389.5,993.0,496.5,279.0,139.5,4.0,2.0,0.0,0.0,149.89999771118164,74.94999885559082,49.0,24.5,4.0,2.0,779.0,389.5,29.0,14.5,1339.0,669.5,0.0,0.0,0.0,0.0,0.05,9.74,16.23,0.0,0.0,0.08,15.9,0.0,26.86,0.0,26.86,5.17,4.0,4.0,17709.69645390071,20112021.9964539,2011.186524822695,72.68675177304964,207.25886524822695,9.586666666666668,52200.00992907801,72.80425531914894,207.31560283687944,32.67433333333334,4.5200463320463315,35.373366013071895,15.492,4.243622902270483,120.43132328308208,6.9371444695259585,11.728636363636362,19.495495495495497
81,Bryce Treggs,2017,2.0,18.0,5.0,79.0,278.0,3.0,0.0,0.0,13.5,0.065,0.03,0.0,4.39,15.8,0.0,6.0,6.0,0.0,0.0,85.0,14.17,6.0,0.0,13.17,1.0,14.17,2.25,0.0,0.395,396,0.01,2016.0,8.0,48.0,263.0,72.0,185.0,23,0,16,0,0.0,1.0,30.0,30.0,8.0,8.0,159.0,159.0,617.0,617.0,19.0,19.0,0.0,0.0,0.0,0.0,25.199999809265137,25.199999809265137,11.0,11.0,0.0,0.0,172.0,172.0,12.0,12.0,612.0,612.0,0.0,0.0,0.0,0.0,0.0,5.3,19.88,0.0,4.33,0.0,15.64,0.0,13.25,1.08,14.33,2.1,1.0,1.0,17709.69645390071,20112021.9964539,2011.186524822695,72.68675177304964,207.25886524822695,9.586666666666668,52200.00992907801,72.80425531914894,207.31560283687944,32.67433333333334,4.5200463320463315,35.373366013071895,15.492,4.243622902270483,120.43132328308208,6.9371444695259585,11.728636363636362,19.495495495495497
82,Byron Pringle,2023,2.0,22.0,14.0,161.0,297.0,31.0,0.0,0.0,30.1,0.078,0.047,0.0,7.32,11.5,0.0,0.0,14.0,0.0,0.0,161.0,11.5,11.0,0.0,14.64,0.0,14.64,2.74,0.0,0.174,184,0.017,2018.0,8.0,48.0,263.0,73.0,203.0,30,4,13,0,0.235,5.0,131.0,26.2,91.0,18.2,1194.0,238.8,1514.0,302.8,363.0,72.6,9.0,1.8,0.0,0.0,264.40000343322754,52.88000068664551,91.0,18.2,9.0,1.8,1194.0,238.8,46.0,9.2,1666.0,333.2,0.0,0.0,0.0,0.0,0.069,9.11,13.12,0.0,0.0,0.1,13.12,0.0,25.96,0.0,25.96,5.75,4.0,4.0,20167.0,20180564.0,2018.0,73.0,203.0,9.586666666666668,66506.0,73.0,203.0,32.67433333333334,4.46,33.5,15.0,4.4,120.0,6.87,11.728636363636362,19.495495495495497
83,C.J. Board,2021,2.0,6.0,4.0,51.0,102.0,13.0,0.0,0.0,9.7,0.02,0.011,0.0,8.5,12.75,0.0,6.0,5.0,0.0,0.0,57.0,11.4,4.0,0.0,12.75,1.5,14.25,2.42,0.0,0.198,206,0.007,2017.0,8.0,48.0,263.0,73.0,181.0,28,4,13,0,0.235,4.0,26.0,6.5,17.0,4.25,183.0,45.75,293.0,73.25,52.0,13.0,0.0,0.0,0.0,0.0,36.19999933242798,9.049999833106996,19.0,4.75,0.0,0.0,192.0,48.0,15.0,3.75,537.0,134.25,0.0,0.0,0.0,0.0,0.0,7.04,10.76,0.0,4.5,0.0,10.11,0.0,12.2,0.6,12.8,2.41,2.0,2.0,17709.69645390071,20112021.9964539,2011.186524822695,72.68675177304964,207.25886524822695,9.586666666666668,52200.00992907801,72.80425531914894,207.31560283687944,32.67433333333334,4.5200463320463315,35.373366013071895,15.492,4.243622902270483,120.43132328308208,6.9371444695259585,11.728636363636362,19.495495495495497
84,Calvin Austin,2023,1.0,30.0,17.0,180.0,378.0,73.0,1.0,0.0,52.7,0.076,0.049,0.033,6.0,10.59,0.091,5.18,28.0,2.0,0.07,237.0,8.46,14.0,0.0,12.86,4.07,16.93,3.76,0.0,0.355,357,0.028,2022.0,4.0,33.0,138.0,69.0,162.0,24,10,7,0,0.588,1.0,30.0,30.0,17.0,17.0,180.0,180.0,378.0,378.0,73.0,73.0,1.0,1.0,0.0,0.0,52.70000076293945,52.70000076293945,28.0,28.0,2.0,2.0,237.0,237.0,14.0,14.0,357.0,357.0,0.0,0.0,0.0,0.0,0.033,6.0,10.59,0.091,5.18,0.07,8.46,0.0,12.86,4.07,16.93,3.76,1.0,1.0,17709.69645390071,20112021.9964539,2011.186524822695,72.68675177304964,207.25886524822695,9.586666666666668,52200.00992907801,72.80425531914894,207.31560283687944,32.67433333333334,4.5200463320463315,35.373366013071895,15.492,4.243622902270483,120.43132328308208,6.9371444695259585,11.728636363636362,19.495495495495497
85,Calvin Johnson,2015,1.0,149.0,88.0,1214.0,1934.0,296.0,10.0,1.0,266.4,0.299,0.195,0.067,8.15,13.8,0.0,0.0,88.0,10.0,0.11,1214.0,13.8,16.0,0.0,75.88,0.0,75.88,16.65,0.0,0.931,950,0.121,2007.0,1.0,2.0,2.0,77.0,237.0,30,7,9,0,0.438,8.0,639.0,79.875,365.0,45.625,5747.0,718.375,8778.0,1097.25,1486.0,185.75,37.0,4.625,5.0,0.625,1146.6999969482422,143.33749961853027,365.0,45.625,37.0,4.625,5747.0,718.375,59.0,7.375,3843.0,480.375,0.0,0.0,0.0,0.0,0.058,8.99,15.75,0.0,0.0,0.1,15.75,0.0,97.41,0.0,97.41,19.44,10.0,49.0,16353.0,20070002.0,2007.0,77.0,239.0,9.586666666666668,30332.0,77.0,236.0,32.67433333333334,4.38,35.373366013071895,15.492,4.243622902270483,120.43132328308208,6.9371444695259585,11.728636363636362,19.495495495495497
86,Calvin Ridley,2023,1.0,137.0,76.0,1018.0,1771.0,194.0,8.0,0.0,228.1,0.354,0.215,0.058,7.43,13.39,0.0,2.56,85.0,8.0,0.09,1041.0,12.25,17.0,0.0,59.88,1.35,61.24,13.42,0.0,0.851,937,0.102,2018.0,1.0,26.0,26.0,73.0,190.0,29,9,8,0,0.529,5.0,521.0,104.2,324.0,64.8,4364.0,872.8,6526.0,1305.2,1062.0,212.4,36.0,7.2,2.0,0.4,978.900016784668,195.7800033569336,346.0,69.2,36.0,7.2,4449.0,889.8,66.0,13.2,4066.0,813.2,0.0,0.0,0.0,0.0,0.069,8.38,13.47,0.0,3.86,0.1,12.86,0.0,66.12,1.29,67.41,14.83,2.0,4.0,17709.69645390071,20112021.9964539,2011.186524822695,72.68675177304964,207.25886524822695,9.586666666666668,52200.00992907801,72.80425531914894,207.31560283687944,32.67433333333334,4.5200463320463315,35.373366013071895,15.492,4.243622902270483,120.43132328308208,6.9371444695259585,11.728636363636362,19.495495495495497
87,Cam Phillips,2018,2.0,1.0,1.0,9.0,2.0,7.0,0.0,0.0,1.9,0.001,0.002,0.0,9.0,9.0,0.0,0.0,1.0,0.0,0.0,9.0,9.0,1.0,0.0,9.0,0.0,9.0,1.9,0.0,0.23,230,0.001,2018.0,8.0,48.0,263.0,72.0,201.0,23,6,10,0,0.375,0.0,1.0,1.0,1.0,1.0,9.0,9.0,2.0,2.0,7.0,7.0,0.0,0.0,0.0,0.0,1.899999976158142,1.899999976158142,1.0,1.0,0.0,0.0,9.0,9.0,1.0,1.0,230.0,230.0,0.0,0.0,0.0,0.0,0.0,9.0,9.0,0.0,0.0,0.0,9.0,0.0,9.0,0.0,9.0,1.9,2.0,23.0,20162.0,20180704.0,2018.0,72.0,201.0,9.586666666666668,24061.0,72.0,201.0,32.67433333333334,4.5200463320463315,35.373366013071895,15.492,4.243622902270483,120.43132328308208,6.9371444695259585,11.728636363636362,19.495495495495497
88,Cam Sims,2022,2.0,18.0,8.0,89.0,232.0,18.0,0.0,0.0,16.9,0.061,0.038,0.0,4.94,11.12,0.0,0.0,8.0,0.0,0.0,89.0,11.12,11.0,0.0,8.09,0.0,8.09,1.54,0.0,0.289,328,0.009,2018.0,8.0,48.0,263.0,77.0,214.0,26,8,9,1,0.444,4.0,92.0,23.0,57.0,14.25,804.0,201.0,1057.0,264.25,317.0,79.25,3.0,0.75,0.0,0.0,156.59999561309814,39.149998903274536,59.0,14.75,3.0,0.75,816.0,204.0,34.0,8.5,1471.0,367.75,0.0,0.0,0.0,0.0,0.033,8.74,14.11,0.0,6.0,0.05,13.83,0.0,23.65,0.35,24.0,4.61,1.0,5.0,17709.69645390071,20112021.9964539,2011.186524822695,72.68675177304964,207.25886524822695,9.586666666666668,52200.00992907801,72.80425531914894,207.31560283687944,32.67433333333334,4.5200463320463315,35.373366013071895,15.492,4.243622902270483,120.43132328308208,6.9371444695259585,11.728636363636362,19.495495495495497
89,Cameron Batson,2021,2.0,5.0,2.0,15.0,84.0,1.0,1.0,0.0,11.0,0.018,0.009,0.2,3.0,7.5,0.0,7.5,4.0,1.0,0.25,30.0,7.5,3.0,0.0,5.0,5.0,10.0,3.67,0.0,0.27,302,0.003,2018.0,8.0,48.0,263.0,68.0,175.0,26,12,5,0,0.706,3.0,29.0,9.666666666666666,22.0,7.333333333333333,197.0,65.66666666666667,237.0,79.0,98.0,32.666666666666664,3.0,1.0,0.0,0.0,63.29999923706055,21.099999745686848,29.0,9.666666666666666,3.0,1.0,233.0,77.66666666666667,18.0,6.0,925.0,308.3333333333333,0.0,0.0,0.0,0.0,0.103,6.79,8.95,0.0,5.14,0.1,8.03,0.0,10.94,2.0,12.94,3.52,1.0,5.0,17709.69645390071,20112021.9964539,2011.186524822695,72.68675177304964,207.25886524822695,9.586666666666668,52200.00992907801,72.80425531914894,207.31560283687944,32.67433333333334,4.5200463320463315,35.373366013071895,15.492,4.243622902270483,120.43132328308208,6.9371444695259585,11.728636363636362,19.495495495495497
90,Cameron Meredith,2018,2.0,10.0,9.0,114.0,92.0,38.0,1.0,1.0,23.4,0.017,0.014,0.1,11.4,12.67,0.0,0.0,9.0,1.0,0.11,114.0,12.67,3.0,0.0,38.0,0.0,38.0,7.8,0.0,0.298,295,0.011,2015.0,8.0,48.0,263.0,75.0,207.0,26,13,3,0,0.812,3.0,123.0,41.0,86.0,28.666666666666668,1122.0,374.0,1230.0,410.0,384.0,128.0,5.0,1.6666666666666667,3.0,1.0,225.8799953460693,75.29333178202312,88.0,29.33333333333333,6.0,2.0,1130.0,376.6666666666667,23.0,7.666666666666667,1257.0,419.0,1.0,0.0,1.0,2.0,0.041,9.12,13.05,0.0,6.0,0.07,12.84,0.09,48.78,0.26,49.13,9.82,1.0,2.0,17709.69645390071,20112021.9964539,2011.186524822695,72.68675177304964,207.25886524822695,9.586666666666668,52200.00992907801,72.80425531914894,207.31560283687944,32.67433333333334,4.5200463320463315,35.373366013071895,15.492,4.243622902270483,120.43132328308208,6.9371444695259585,11.728636363636362,19.495495495495497
91,Cecil Shorts,2016,2.0,27.0,11.0,152.0,393.0,45.0,0.0,0.0,26.2,0.069,0.045,0.0,5.63,13.82,0.0,0.0,11.0,0.0,0.0,152.0,13.82,7.0,0.0,21.71,0.0,21.71,3.74,0.0,0.374,395,0.016,2011.0,4.0,17.0,114.0,72.0,202.0,29,9,7,0,0.562,5.0,443.0,88.6,227.0,45.4,2949.0,589.8,4544.0,908.8,1149.0,229.8,17.0,3.4,3.0,0.6,633.3200035095215,126.6640007019043,241.0,48.2,19.0,3.8,3045.0,609.0,58.0,11.6,3667.0,733.4,1.0,0.0,0.667,17.67,0.038,6.66,12.99,0.0,3.91,0.08,12.63,0.91,50.84,0.74,52.5,10.92,4.0,36.0,17587.0,20110114.0,2011.0,71.75,205.0,9.586666666666668,44601.0,72.0,202.0,32.67433333333334,4.5,34.5,21.0,4.07,114.0,6.5,11.728636363636362,19.495495495495497
92,Cedric Tillman,2023,2.0,44.0,21.0,224.0,468.0,88.0,1.0,0.0,50.2,0.11,0.073,0.023,5.09,10.67,0.0,8.0,22.0,1.0,0.05,232.0,10.55,11.0,0.0,20.36,0.73,21.09,4.56,0.0,0.61,720,0.024,2023.0,3.0,11.0,74.0,75.0,215.0,23,11,6,0,0.647,0.0,44.0,44.0,21.0,21.0,224.0,224.0,468.0,468.0,88.0,88.0,1.0,1.0,0.0,0.0,50.20000076293945,50.20000076293945,22.0,22.0,1.0,1.0,232.0,232.0,11.0,11.0,720.0,720.0,0.0,0.0,0.0,0.0,0.023,5.09,10.67,0.0,8.0,0.05,10.55,0.0,20.36,0.73,21.09,4.56,2.0,2.0,12038.0,19920305.0,1992.0,73.8,207.0,10.75,39096.0,74.0,219.0,32.63,4.81,31.5,15.492,4.4,114.0,6.9371444695259585,12.0,19.495495495495497
93,Cedrick Wilson,2023,2.0,38.0,22.0,296.0,429.0,57.0,3.0,0.0,69.32,0.099,0.07,0.079,7.79,13.45,0.0,0.0,23.0,3.0,0.13,289.0,12.57,11.0,-0.64,26.91,0.0,26.27,6.3,-27.08,0.574,594,0.025,2018.0,6.0,34.0,208.0,74.0,197.0,28,11,6,0,0.647,5.0,154.0,30.8,101.0,20.2,1271.0,254.2,1591.0,318.2,486.0,97.2,11.0,2.2,0.0,0.0,304.72000312805176,60.94400062561035,115.0,23.0,12.0,2.4000000000000004,1376.0,275.2,47.0,9.4,1854.0,370.8,0.714,0.0,0.143,14.0,0.071,8.25,12.58,0.0,1.0,0.1,11.97,2.09,27.04,0.15,29.28,6.48,5.0,7.0,14863.0,20010169.0,2001.0,69.8,179.0,9.586666666666668,37998.0,70.0,183.0,32.67433333333334,4.46,38.0,15.492,4.243622902270483,123.0,6.9371444695259585,11.728636363636362,19.495495495495497
94,CeeDee Lamb,2023,1.0,182.0,135.0,1751.0,1722.0,680.0,12.0,2.0,399.4,0.298,0.262,0.066,9.62,12.97,0.143,8.07,149.0,14.0,0.09,1864.0,12.51,17.0,0.0,103.0,6.65,109.65,23.49,0.0,0.837,924,0.169,2020.0,1.0,17.0,17.0,74.0,200.0,24,12,5,0,0.706,3.0,570.0,190.0,395.0,131.66666666666666,5161.0,1720.3333333333333,5551.0,1850.3333333333333,1926.0,642.0,32.0,10.666666666666666,3.0,1.0,1143.9400024414062,381.3133341471354,441.0,146.99999999999997,35.0,11.666666666666666,5477.0,1825.6666666666667,66.0,22.0,3465.0,1155.0,0.0,0.0,0.0,-2.0,0.056,9.05,13.07,0.068,7.27,0.08,12.42,-0.06,78.2,4.85,82.98,17.33,2.0,4.0,17709.69645390071,20112021.9964539,2011.186524822695,72.68675177304964,207.25886524822695,9.586666666666668,52200.00992907801,72.80425531914894,207.31560283687944,32.67433333333334,4.5200463320463315,35.373366013071895,15.492,4.243622902270483,120.43132328308208,6.9371444695259585,11.728636363636362,19.495495495495497
95,Chad Beebe,2020,2.0,30.0,20.0,201.0,181.0,73.0,2.0,0.0,52.1,0.054,0.058,0.067,6.7,10.05,0.0,0.0,20.0,2.0,0.1,201.0,10.05,10.0,0.0,20.1,0.0,20.1,5.21,0.0,0.319,326,0.019,2018.0,8.0,48.0,263.0,70.0,183.0,26,7,9,0,0.438,2.0,36.0,18.0,26.0,13.0,310.0,155.0,212.0,106.0,151.0,75.5,2.0,1.0,0.0,0.0,68.99999856948853,34.49999928474426,26.0,13.0,2.0,1.0,310.0,155.0,14.0,7.0,811.0,405.5,0.0,0.0,0.0,0.0,0.056,8.61,11.92,0.0,0.0,0.08,11.92,0.0,22.14,0.0,22.14,4.93,5.0,5.0,17709.69645390071,20112021.9964539,2011.186524822695,72.68675177304964,207.25886524822695,9.586666666666668,52200.00992907801,72.80425531914894,207.31560283687944,32.67433333333334,4.5200463320463315,35.373366013071895,15.492,4.243622902270483,120.43132328308208,6.9371444695259585,11.728636363636362,19.495495495495497
96,Chad Hansen,2020,2.0,25.0,17.0,258.0,290.0,39.0,1.0,0.0,48.8,0.066,0.043,0.04,10.32,15.18,0.0,0.0,17.0,1.0,0.06,258.0,15.18,5.0,0.0,51.6,0.0,51.6,9.76,0.0,0.906,844,0.024,2017.0,4.0,33.0,141.0,74.0,202.0,25,4,12,0,0.25,3.0,42.0,14.0,26.0,8.666666666666666,352.0,117.33333333333331,462.0,154.0,61.0,20.33333333333333,1.0,0.3333333333333333,0.0,0.0,67.19999885559082,22.399999618530277,26.0,8.666666666666666,1.0,0.3333333333333333,352.0,117.33333333333331,11.0,3.6666666666666665,1177.0,392.3333333333333,0.0,0.0,0.0,0.0,0.024,8.38,13.54,0.0,0.0,0.04,13.54,0.0,32.0,0.0,32.0,6.11,5.0,5.0,19747.0,20170141.0,2017.0,73.75,202.0,9.586666666666668,94720.0,74.0,202.0,32.67433333333334,4.53,35.0,11.0,4.13,119.0,6.74,11.728636363636362,19.495495495495497
97,Chad Williams,2019,3.0,1.0,0.0,0.0,15.0,0.0,0.0,0.0,0.0,0.002,0.002,0.0,0.0,0.0,0.0,0.0,0.0,0.0,0.0,0.0,0.0,1.0,0.0,0.0,0.0,0.0,0.0,0.0,0.1,100,0.0,2017.0,3.0,34.0,98.0,74.0,204.0,25,7,9,0,0.438,2.0,54.0,27.0,20.0,10.0,202.0,101.0,681.0,340.5,22.0,11.0,1.0,0.5,0.0,0.0,50.39999961853027,25.199999809265137,23.0,11.5,1.0,0.5,244.0,122.0,16.0,8.0,1023.0,511.5,0.0,0.0,0.0,0.0,0.019,3.74,10.1,0.0,14.0,0.04,10.61,0.0,12.62,2.62,15.25,3.15,6.0,9.0,15127.0,20020209.0,2002.0,69.5,207.0,9.586666666666668,39406.0,69.0,207.0,32.67433333333334,4.5,36.5,20.0,4.243622902270483,120.0,6.96,11.728636363636362,19.495495495495497
98,Charles Johnson,2016,1.0,37.0,20.0,232.0,501.0,70.0,0.0,0.0,43.2,0.15,0.072,0.0,6.27,11.6,0.0,0.0,20.0,0.0,0.0,232.0,11.6,13.0,0.0,17.85,0.0,17.85,3.32,0.0,0.397,394,0.025,2013.0,7.0,10.0,216.0,74.0,215.0,27,8,8,0,0.5,3.0,109.0,36.333333333333336,60.0,20.0,834.0,278.0,1526.0,508.6666666666667,269.0,89.66666666666667,3.0,1.0,0.0,0.0,160.3000030517578,53.43333435058594,61.0,20.33333333333333,3.0,1.0,823.0,274.3333333333333,30.0,10.0,1310.0,436.6666666666667,0.0,0.0,0.0,0.0,0.028,7.65,13.9,0.0,-11.0,0.05,13.49,0.0,27.8,-0.37,27.43,5.34,2.0,7.0,16354.0,20070083.0,2007.0,74.25,270.0,9.586666666666668,30602.0,74.0,278.0,32.67433333333334,4.85,34.0,33.0,4.243622902270483,118.0,7.5,11.728636363636362,19.495495495495497
99,Charlie Jones,2023,2.0,9.0,7.0,64.0,79.0,38.0,0.0,0.0,14.7,0.017,0.015,0.0,7.11,9.14,0.0,6.5,9.0,0.0,0.0,77.0,8.56,4.0,0.0,16.0,3.25,19.25,3.67,0.0,0.089,91,0.008,2023.0,4.0,29.0,131.0,72.0,183.0,25,9,8,0,0.529,0.0,9.0,9.0,7.0,7.0,64.0,64.0,79.0,79.0,38.0,38.0,0.0,0.0,0.0,0.0,14.699999809265137,14.699999809265137,9.0,9.0,0.0,0.0,77.0,77.0,4.0,4.0,91.0,91.0,0.0,0.0,0.0,0.0,0.0,7.11,9.14,0.0,6.5,0.0,8.56,0.0,16.0,3.25,19.25,3.67,3.0,3.0,13191.0,19960114.0,1996.0,68.0,175.0,9.63,93740.0,68.0,175.0,31.63,4.59,34.0,15.492,4.59,117.0,6.9371444695259585,11.76,19.495495495495497
100,Charone Peake,2018,2.0,3.0,2.0,25.0,32.0,4.0,0.0,0.0,4.5,0.007,0.006,0.0,8.33,12.5,0.0,0.0,2.0,0.0,0.0,25.0,12.5,3.0,0.0,8.33,0.0,8.33,1.5,0.0,0.135,129,0.003,2016.0,7.0,20.0,241.0,74.0,209.0,26,4,12,0,0.25,2.0,39.0,19.5,22.0,11.0,214.0,107.0,351.0,175.5,76.0,38.0,0.0,0.0,0.0,0.0,43.39999842643738,21.69999921321869,22.0,11.0,0.0,0.0,214.0,107.0,15.0,7.5,667.0,333.5,0.0,0.0,0.0,0.0,0.0,5.49,9.73,0.0,0.0,0.0,9.73,0.0,14.27,0.0,14.27,2.89,3.0,3.0,19536.0,20160241.0,2016.0,74.38,209.0,9.586666666666668,29631.0,74.0,209.0,32.67433333333334,4.45,35.5,12.0,4.46,122.0,6.96,11.728636363636362,19.495495495495497
101,Chase Claypool,2023,2.0,21.0,8.0,77.0,230.0,25.0,1.0,0.0,21.7,0.053,0.039,0.048,3.67,9.62,0.0,0.0,8.0,1.0,0.12,77.0,9.62,4.0,0.0,19.25,0.0,19.25,5.43,0.0,0.113,117,0.007,2020.0,2.0,17.0,49.0,76.0,238.0,25,11,6,0,0.647,3.0,317.0,105.66666666666669,175.0,58.333333333333336,2241.0,747.0,3687.0,1229.0,772.0,257.3333333333333,13.0,4.333333333333333,2.0,0.6666666666666666,506.23999404907227,168.74666468302408,209.0,69.66666666666667,16.0,5.333333333333333,2413.0,804.3333333333334,42.0,14.0,2118.0,706.0,1.0,0.0,1.0,1.0,0.041,7.07,12.81,0.061,5.18,0.08,11.55,0.02,53.36,4.07,57.45,12.05,3.0,7.0,17709.69645390071,20112021.9964539,2011.186524822695,72.68675177304964,207.25886524822695,9.586666666666668,52200.00992907801,72.80425531914894,207.31560283687944,32.67433333333334,4.5200463320463315,35.373366013071895,15.492,4.243622902270483,120.43132328308208,6.9371444695259585,11.728636363636362,19.495495495495497
102,Chaz Schilens,2012,2.0,41.0,28.0,289.0,420.0,49.0,2.0,1.0,65.9,0.096,0.076,0.049,7.05,10.32,0.0,0.0,28.0,2.0,0.07,289.0,10.32,12.0,0.0,24.08,0.0,24.08,5.49,0.0,0.513,527,0.036,2008.0,7.0,19.0,226.0,76.0,225.0,27,6,10,0,0.375,4.0,41.0,10.25,28.0,7.0,289.0,72.25,420.0,105.0,49.0,12.25,2.0,0.5,1.0,0.25,65.9000015258789,16.475000381469727,28.0,7.0,2.0,0.5,289.0,72.25,12.0,3.0,527.0,131.75,0.0,0.0,0.0,0.0,0.049,7.05,10.32,0.0,0.0,0.07,10.32,0.0,24.08,0.0,24.08,5.49,7.0,7.0,17709.69645390071,20112021.9964539,2011.186524822695,72.68675177304964,207.25886524822695,9.586666666666668,52200.00992907801,72.80425531914894,207.31560283687944,32.67433333333334,4.5200463320463315,35.373366013071895,15.492,4.243622902270483,120.43132328308208,6.9371444695259585,11.728636363636362,19.495495495495497
103,Chester Rogers,2021,1.0,43.0,30.0,301.0,323.0,103.0,1.0,0.0,67.0,0.068,0.074,0.023,7.0,10.03,0.0,9.0,31.0,1.0,0.03,310.0,10.0,16.0,0.0,18.81,0.56,19.38,4.19,0.0,0.403,450,0.032,2016.0,8.0,48.0,263.0,72.0,184.0,27,12,5,0,0.706,5.0,216.0,43.2,141.0,28.2,1529.0,305.8,1765.0,353.0,588.0,117.6,6.0,1.2,0.0,0.0,333.0,66.6,147.0,29.4,6.0,1.2,1560.0,312.0,60.0,12.0,2544.0,508.8,0.0,0.0,0.0,0.0,0.028,7.08,10.84,0.0,5.17,0.04,10.61,0.0,25.48,0.52,26.0,5.55,2.0,9.0,17709.69645390071,20112021.9964539,2011.186524822695,72.68675177304964,207.25886524822695,9.586666666666668,52200.00992907801,72.80425531914894,207.31560283687944,32.67433333333334,4.5200463320463315,35.373366013071895,15.492,4.243622902270483,120.43132328308208,6.9371444695259585,11.728636363636362,19.495495495495497
104,Chris Conley,2023,3.0,6.0,3.0,69.0,74.0,28.0,0.0,0.0,9.9,0.019,0.013,0.0,11.5,23.0,0.0,0.0,3.0,0.0,0.0,69.0,23.0,1.0,0.0,69.0,0.0,69.0,9.9,0.0,0.215,214,0.006,2015.0,3.0,12.0,76.0,75.0,205.0,31,12,5,0,0.706,8.0,374.0,46.75,220.0,27.5,2924.0,365.5,4113.0,514.125,998.0,124.75,15.0,1.875,4.0,0.5,590.6999969482422,73.83749961853027,221.0,27.625,15.0,1.875,2927.0,365.875,93.0,11.625,5101.0,637.625,0.0,0.0,0.0,0.0,0.04,7.82,13.29,0.0,3.0,0.07,13.24,0.0,31.44,0.03,31.47,6.35,4.0,12.0,18630.0,20150076.0,2015.0,73.7,213.0,9.586666666666668,30602.0,75.0,205.0,32.67433333333334,4.35,45.0,18.0,4.3,139.0,7.06,11.728636363636362,19.495495495495497
105,Chris Givens,2015,2.0,54.0,20.0,353.0,723.0,52.0,1.0,0.0,63.1,0.132,0.09,0.019,6.54,17.65,0.0,4.5,24.0,1.0,0.04,371.0,15.46,12.0,0.0,29.42,1.5,30.92,5.26,0.0,0.524,565,0.036,2012.0,4.0,1.0,96.0,72.0,203.0,26,5,11,0,0.312,3.0,54.0,18.0,20.0,6.666666666666667,353.0,117.66666666666669,723.0,241.0,52.0,17.333333333333332,1.0,0.3333333333333333,0.0,0.0,63.09999847412109,21.03333282470703,24.0,8.0,1.0,0.3333333333333333,371.0,123.66666666666669,12.0,4.0,565.0,188.33333333333331,0.0,0.0,0.0,0.0,0.019,6.54,17.65,0.0,4.5,0.04,15.46,0.0,29.42,1.5,30.92,5.26,1.0,2.0,17747.0,20120096.0,2012.0,71.13,198.0,9.586666666666668,27106.0,73.0,203.0,32.67433333333334,4.35,33.5,19.0,4.23,118.0,6.97,11.728636363636362,19.495495495495497
106,Chris Godwin,2023,1.0,131.0,83.0,1026.0,1180.0,376.0,2.0,0.0,207.4,0.208,0.221,0.015,7.83,12.36,0.25,9.5,88.0,3.0,0.03,1064.0,12.09,17.0,0.0,60.35,2.24,62.59,12.2,2.08,0.812,834,0.113,2017.0,3.0,20.0,84.0,73.0,209.0,27,9,8,0,0.529,6.0,761.0,126.83333333333331,529.0,88.16666666666667,6694.0,1115.6666666666667,6890.0,1148.3333333333333,2743.0,457.1666666666667,35.0,5.833333333333333,5.0,0.8333333333333334,1412.5999755859375,235.4333292643229,543.0,90.5,37.0,6.166666666666666,6766.0,1127.6666666666667,103.0,17.166666666666668,5636.0,939.3333333333334,0.0,0.0,0.0,0.0,0.046,8.8,12.65,0.154,5.54,0.07,12.46,0.0,64.99,0.7,65.69,13.71,3.0,18.0,17709.69645390071,20112021.9964539,2011.186524822695,72.68675177304964,207.25886524822695,9.586666666666668,52200.00992907801,72.80425531914894,207.31560283687944,32.67433333333334,4.5200463320463315,35.373366013071895,15.492,4.243622902270483,120.43132328308208,6.9371444695259585,11.728636363636362,19.495495495495497
107,Chris Harper,2016,2.0,21.0,13.0,133.0,141.0,64.0,0.0,0.0,26.3,0.037,0.044,0.0,6.33,10.23,0.0,0.0,13.0,0.0,0.0,133.0,10.23,8.0,0.0,16.62,0.0,16.62,3.29,0.0,0.412,407,0.016,2015.0,8.0,48.0,263.0,71.0,185.0,23,2,14,0,0.125,1.0,24.0,24.0,14.0,14.0,139.0,139.0,197.0,197.0,65.0,65.0,0.0,0.0,0.0,0.0,27.899999260902405,27.899999260902405,14.0,14.0,0.0,0.0,139.0,139.0,11.0,11.0,629.0,629.0,0.0,0.0,0.0,0.0,0.0,5.79,9.93,0.0,0.0,0.0,9.93,0.0,12.64,0.0,12.64,2.54,4.0,4.0,18069.0,20130123.0,2013.0,72.75,229.0,9.586666666666668,66506.0,73.0,228.0,32.67433333333334,4.55,35.5,20.0,4.39,116.0,6.89,11.728636363636362,33.0
108,Chris Hogan,2021,3.0,8.0,4.0,41.0,49.0,13.0,1.0,0.0,14.1,0.009,0.012,0.125,5.12,10.25,0.0,0.0,4.0,1.0,0.25,41.0,10.25,5.0,0.0,8.2,0.0,8.2,2.82,0.0,0.24,249,0.005,2011.0,8.0,48.0,263.0,73.0,210.0,33,9,8,0,0.529,10.0,358.0,35.8,220.0,22.0,2843.0,284.3,4063.0,406.3,1008.0,100.8,20.0,2.0,2.0,0.2,621.4599962234497,62.14599962234497,228.0,22.8,20.0,2.0,2877.0,287.7,87.0,8.7,5239.0,523.9,1.0,0.0,0.0,4.0,0.056,7.94,12.92,0.0,4.29,0.09,12.62,0.05,32.68,0.34,33.07,7.14,2.0,30.0,17709.69645390071,20112021.9964539,2011.186524822695,72.68675177304964,207.25886524822695,9.586666666666668,52200.00992907801,72.80425531914894,207.31560283687944,32.67433333333334,4.5200463320463315,35.373366013071895,15.492,4.243622902270483,120.43132328308208,6.9371444695259585,11.728636363636362,19.495495495495497
109,Chris Lacy,2019,2.0,10.0,3.0,60.0,134.0,9.0,0.0,0.0,9.0,0.021,0.013,0.0,6.0,20.0,0.0,0.0,3.0,0.0,0.0,60.0,20.0,3.0,0.0,20.0,0.0,20.0,3.0,0.0,0.306,309,0.006,2018.0,8.0,48.0,263.0,75.0,205.0,23,3,13,1,0.176,1.0,11.0,11.0,3.0,3.0,60.0,60.0,143.0,143.0,9.0,9.0,0.0,0.0,0.0,0.0,9.0,9.0,3.0,3.0,0.0,0.0,60.0,60.0,4.0,4.0,795.0,795.0,0.0,0.0,0.0,0.0,0.0,5.45,20.0,0.0,0.0,0.0,20.0,0.0,15.0,0.0,15.0,2.25,1.0,19.0,20117.0,20180615.0,2018.0,75.0,205.0,9.586666666666668,74078.0,75.0,205.0,32.67433333333334,4.51,33.5,11.0,4.243622902270483,120.0,6.9371444695259585,11.728636363636362,19.495495495495497
110,Chris Moore,2023,2.0,35.0,22.0,424.0,641.0,57.0,0.0,0.0,68.3,0.134,0.06,0.0,12.11,19.27,0.0,19.5,24.0,0.0,0.0,463.0,19.29,14.0,0.0,30.29,2.79,33.07,4.88,0.0,0.57,560,0.055,2016.0,4.0,9.0,107.0,73.0,200.0,30,6,11,0,0.353,7.0,215.0,30.714285714285715,138.0,19.714285714285715,1710.0,244.28571428571428,2378.0,339.7142857142857,598.0,85.42857142857143,10.0,1.4285714285714286,0.0,0.0,375.9000029563904,53.70000042234148,154.0,22.0,10.0,1.4285714285714286,1779.0,254.14285714285717,75.0,10.714285714285714,2906.0,415.1428571428572,0.0,0.0,0.0,0.0,0.047,7.95,12.39,0.0,4.31,0.06,11.55,0.0,22.8,0.92,23.72,5.01,3.0,16.0,19513.0,20160107.0,2016.0,73.0,206.0,9.586666666666668,45221.0,73.0,204.0,32.67433333333334,4.53,37.0,10.0,4.2,130.0,6.76,11.728636363636362,19.495495495495497
111,Chris Olave,2023,1.0,139.0,87.0,1125.0,1834.0,347.0,5.0,0.0,229.5,0.335,0.2,0.036,8.09,12.93,0.0,0.0,87.0,5.0,0.06,1125.0,12.93,16.0,0.0,70.31,0.0,70.31,14.34,0.0,0.738,813,0.113,2022.0,1.0,11.0,11.0,72.0,187.0,23,9,8,0,0.529,1.0,259.0,259.0,159.0,159.0,2169.0,2169.0,3520.0,3520.0,557.0,557.0,10.0,10.0,2.0,2.0,429.8999938964844,429.8999938964844,159.0,159.0,10.0,10.0,2169.0,2169.0,31.0,31.0,1476.0,1476.0,0.0,0.0,0.0,0.0,0.039,8.37,13.64,0.0,0.0,0.06,13.64,0.0,69.97,0.0,69.97,13.87,3.0,6.0,17709.69645390071,20112021.9964539,2011.186524822695,72.68675177304964,207.25886524822695,9.586666666666668,52200.00992907801,72.80425531914894,207.31560283687944,32.67433333333334,4.5200463320463315,35.373366013071895,15.492,4.243622902270483,120.43132328308208,6.9371444695259585,11.728636363636362,19.495495495495497
112,Chris Thompson,2017,2.0,6.0,5.0,84.0,58.0,30.0,0.0,0.0,13.4,0.013,0.01,0.0,14.0,16.8,0.0,0.0,5.0,0.0,0.0,84.0,16.8,3.0,0.0,28.0,0.0,28.0,4.47,0.0,0.178,182,0.01,2017.0,8.0,48.0,263.0,72.0,175.0,23,4,12,0,0.25,0.0,6.0,6.0,5.0,5.0,84.0,84.0,58.0,58.0,30.0,30.0,0.0,0.0,0.0,0.0,13.399999618530272,13.399999618530272,5.0,5.0,0.0,0.0,84.0,84.0,3.0,3.0,182.0,182.0,0.0,0.0,0.0,0.0,0.0,14.0,16.8,0.0,0.0,0.0,16.8,0.0,28.0,0.0,28.0,4.47,1.0,1.0,18224.0,20130154.0,2013.0,67.13,192.0,9.586666666666668,32306.0,68.0,191.0,32.67433333333334,4.42,35.373366013071895,21.0,4.243622902270483,120.43132328308208,6.9371444695259585,11.728636363636362,19.495495495495497
113,Christian Blake,2021,2.0,9.0,4.0,25.0,58.0,2.0,0.0,0.0,6.5,0.012,0.014,0.0,2.78,6.25,0.0,0.0,4.0,0.0,0.0,25.0,6.25,6.0,0.0,4.17,0.0,4.17,1.08,0.0,0.143,142,0.003,2018.0,8.0,48.0,263.0,73.0,181.0,25,7,10,0,0.412,3.0,52.0,17.333333333333332,28.0,9.333333333333334,257.0,85.66666666666667,415.0,138.33333333333334,52.0,17.333333333333332,0.0,0.0,0.0,0.0,53.70000076293945,17.900000254313152,28.0,9.333333333333334,0.0,0.0,257.0,85.66666666666667,19.0,6.333333333333333,917.0,305.6666666666667,0.0,0.0,0.0,0.0,0.0,4.94,9.18,0.0,0.0,0.0,9.18,0.0,13.53,0.0,13.53,2.83,6.0,28.0,17709.69645390071,20112021.9964539,2011.186524822695,72.68675177304964,207.25886524822695,9.586666666666668,52200.00992907801,72.80425531914894,207.31560283687944,32.67433333333334,4.5200463320463315,35.373366013071895,15.492,4.243622902270483,120.43132328308208,6.9371444695259585,11.728636363636362,19.495495495495497
114,Christian Kirk,2023,1.0,85.0,57.0,787.0,842.0,247.0,3.0,2.0,148.26,0.169,0.133,0.035,9.26,13.81,0.0,6.0,60.0,3.0,0.05,792.0,13.2,12.0,-0.08,65.58,0.5,66.0,12.35,41.67,0.706,778,0.078,2018.0,2.0,15.0,47.0,71.0,200.0,27,9,8,0,0.529,5.0,578.0,115.6,376.0,75.2,4799.0,959.8,5931.0,1186.2,1524.0,304.8,28.0,5.6,3.0,0.6,1032.0799865722656,206.41599731445316,402.0,80.4,28.0,5.6,4990.0,998.0,85.0,17.0,5018.0,1003.6,0.5,0.0,0.0,8.0,0.048,8.3,12.76,0.0,7.23,0.07,12.41,0.38,56.46,1.87,58.71,12.14,1.0,8.0,20115.0,20180047.0,2018.0,70.0,201.0,9.586666666666668,77843.0,71.0,200.0,32.67433333333334,4.47,35.5,20.0,4.45,115.0,7.09,11.728636363636362,19.495495495495497
115,Christian Watson,2023,1.0,53.0,28.0,422.0,817.0,105.0,5.0,0.0,101.3,0.182,0.087,0.094,7.96,15.07,0.0,2.75,32.0,5.0,0.16,433.0,13.53,9.0,0.0,46.89,1.22,48.11,11.26,0.0,0.769,800,0.043,2022.0,2.0,2.0,34.0,76.0,208.0,24,9,8,0,0.529,1.0,119.0,119.0,69.0,69.0,1033.0,1033.0,1740.0,1740.0,369.0,369.0,12.0,12.0,0.0,0.0,265.40000915527344,265.40000915527344,80.0,80.0,14.0,14.0,1124.0,1124.0,23.0,23.0,1394.0,1394.0,0.0,0.0,0.0,0.0,0.101,8.68,14.97,0.182,8.27,0.18,14.05,0.0,44.91,3.96,48.87,11.54,10.0,16.0,17709.69645390071,20112021.9964539,2011.186524822695,72.68675177304964,207.25886524822695,9.586666666666668,52200.00992907801,72.80425531914894,207.31560283687944,32.67433333333334,4.5200463320463315,35.373366013071895,15.492,4.243622902270483,120.43132328308208,6.9371444695259585,11.728636363636362,19.495495495495497
116,Cobi Hamilton,2017,3.0,6.0,1.0,8.0,68.0,4.0,0.0,0.0,1.8,0.015,0.01,0.0,1.33,8.0,0.0,0.0,1.0,0.0,0.0,8.0,8.0,2.0,0.0,4.0,0.0,4.0,0.9,0.0,0.32,327,0.001,2013.0,6.0,29.0,197.0,74.0,201.0,27,4,12,0,0.25,4.0,34.0,8.5,18.0,4.5,242.0,60.5,433.0,108.25,26.0,6.5,2.0,0.5,0.0,0.0,54.20000147819519,13.550000369548798,18.0,4.5,2.0,0.5,242.0,60.5,13.0,3.25,844.0,211.0,0.0,0.0,0.0,0.0,0.059,7.12,13.44,0.0,0.0,0.11,13.44,0.0,18.62,0.0,18.62,4.17,3.0,13.0,18067.0,20130197.0,2013.0,73.75,212.0,9.586666666666668,72701.0,74.0,201.0,32.67433333333334,4.56,29.5,11.0,4.31,107.0,6.9371444695259585,11.728636363636362,19.495495495495497
117,Cody Core,2019,3.0,5.0,3.0,28.0,32.0,3.0,0.0,0.0,5.8,0.006,0.009,0.0,5.6,9.33,0.0,0.0,3.0,0.0,0.0,28.0,9.33,1.0,0.0,28.0,0.0,28.0,5.8,0.0,0.085,85,0.003,2016.0,6.0,24.0,199.0,75.0,205.0,25,4,12,0,0.25,3.0,65.0,21.666666666666668,33.0,11.0,390.0,130.0,726.0,242.0,157.0,52.333333333333336,1.0,0.3333333333333333,0.0,0.0,78.00000095367432,26.00000031789144,33.0,11.0,1.0,0.3333333333333333,390.0,130.0,19.0,6.333333333333333,1069.0,356.3333333333333,0.0,0.0,0.0,0.0,0.015,6.0,11.82,0.0,0.0,0.03,11.82,0.0,20.53,0.0,20.53,4.11,2.0,3.0,19378.0,20160199.0,2016.0,74.63,205.0,9.586666666666668,38677.0,75.0,214.0,32.67433333333334,4.47,31.5,14.0,4.243622902270483,119.0,6.9371444695259585,11.728636363636362,19.495495495495497
118,Cody Hollister,2022,2.0,5.0,3.0,54.0,78.0,8.0,0.0,0.0,8.4,0.016,0.009,0.0,10.8,18.0,0.0,0.0,3.0,0.0,0.0,54.0,18.0,3.0,0.0,18.0,0.0,18.0,2.8,0.0,0.268,262,0.007,2017.0,8.0,48.0,263.0,76.0,220.0,29,7,10,0,0.412,5.0,8.0,1.6,6.0,1.2,79.0,15.8,98.0,19.6,13.0,2.6,0.0,0.0,0.0,0.0,13.899999618530272,2.779999923706055,6.0,1.2,0.0,0.0,79.0,15.8,5.0,1.0,527.0,105.4,0.0,0.0,0.0,0.0,0.0,9.88,13.17,0.0,0.0,0.0,13.17,0.0,15.8,0.0,15.8,2.78,2.0,6.0,17709.69645390071,20112021.9964539,2011.186524822695,72.68675177304964,207.25886524822695,9.586666666666668,52200.00992907801,72.80425531914894,207.31560283687944,32.67433333333334,4.5200463320463315,35.373366013071895,15.492,4.243622902270483,120.43132328308208,6.9371444695259585,11.728636363636362,19.495495495495497
119,Cody Latimer,2019,2.0,42.0,24.0,300.0,497.0,69.0,2.0,0.0,66.0,0.097,0.075,0.048,7.14,12.5,0.0,0.0,24.0,2.0,0.08,300.0,12.5,13.0,0.0,23.08,0.0,23.08,5.08,0.0,0.365,369,0.032,2014.0,2.0,24.0,56.0,73.0,222.0,27,4,12,0,0.25,5.0,120.0,24.0,70.0,14.0,937.0,187.4,1486.0,297.2,228.0,45.6,6.0,1.2,0.0,0.0,199.8000020980835,39.9600004196167,72.0,14.4,6.0,1.2,938.0,187.6,44.0,8.8,1972.0,394.4,0.0,0.0,0.0,0.0,0.05,7.81,13.39,0.0,0.5,0.08,13.03,0.0,21.3,0.02,21.32,4.54,2.0,17.0,18425.0,20140056.0,2014.0,74.5,215.0,9.586666666666668,47405.0,74.0,215.0,32.67433333333334,4.52,35.373366013071895,23.0,4.243622902270483,120.43132328308208,6.9371444695259585,11.728636363636362,19.495495495495497
120,Cody Thompson,2023,2.0,1.0,1.0,10.0,6.0,4.0,0.0,0.0,2.0,0.001,0.002,0.0,10.0,10.0,0.0,0.0,1.0,0.0,0.0,10.0,10.0,1.0,0.0,10.0,0.0,10.0,2.0,0.0,0.058,57,0.001,2019.0,8.0,48.0,263.0,74.0,205.0,27,9,8,0,0.529,4.0,1.0,0.25,1.0,0.25,10.0,2.5,6.0,1.5,4.0,1.0,0.0,0.0,0.0,0.0,2.0,0.5,1.0,0.25,0.0,0.0,10.0,2.5,1.0,0.25,57.0,14.25,0.0,0.0,0.0,0.0,0.0,10.0,10.0,0.0,0.0,0.0,10.0,0.0,10.0,0.0,10.0,2.0,2.0,17.0,17709.69645390071,20112021.9964539,2011.186524822695,72.68675177304964,207.25886524822695,9.586666666666668,52200.00992907801,72.80425531914894,207.31560283687944,32.67433333333334,4.5200463320463315,35.373366013071895,15.492,4.243622902270483,120.43132328308208,6.9371444695259585,11.728636363636362,19.495495495495497
121,Cody White,2021,2.0,6.0,5.0,33.0,38.0,14.0,0.0,0.0,8.3,0.008,0.01,0.0,5.5,6.6,0.0,0.0,5.0,0.0,0.0,33.0,6.6,3.0,0.0,11.0,0.0,11.0,2.77,0.0,0.132,145,0.004,2020.0,8.0,48.0,263.0,75.0,215.0,23,9,8,1,0.5,1.0,6.0,6.0,5.0,5.0,33.0,33.0,38.0,38.0,14.0,14.0,0.0,0.0,0.0,0.0,8.300000190734863,8.300000190734863,5.0,5.0,0.0,0.0,33.0,33.0,3.0,3.0,145.0,145.0,0.0,0.0,0.0,0.0,0.0,5.5,6.6,0.0,0.0,0.0,6.6,0.0,11.0,0.0,11.0,2.77,2.0,17.0,17709.69645390071,20112021.9964539,2011.186524822695,72.68675177304964,207.25886524822695,9.586666666666668,52200.00992907801,72.80425531914894,207.31560283687944,32.67433333333334,4.5200463320463315,35.373366013071895,15.492,4.243622902270483,120.43132328308208,6.9371444695259585,11.728636363636362,19.495495495495497
122,Cole Beasley,2022,2.0,7.0,6.0,35.0,26.0,14.0,0.0,0.0,9.5,0.007,0.013,0.0,5.0,5.83,0.0,0.0,6.0,0.0,0.0,35.0,5.83,2.0,0.0,17.5,0.0,17.5,4.75,0.0,0.115,117,0.003,2012.0,8.0,48.0,263.0,68.0,174.0,33,13,3,0,0.812,10.0,786.0,78.6,556.0,55.6,5750.0,575.0,5013.0,501.3,2581.0,258.1,37.0,3.7,3.0,0.3,1351.5000038146973,135.15000038146974,561.0,56.1,38.0,3.8,5777.0,577.7,148.0,14.8,5387.0,538.7,0.25,0.0,0.25,5.0,0.047,7.32,10.34,0.0,7.0,0.07,10.3,0.14,38.85,0.05,39.03,9.13,1.0,10.0,17709.69645390071,20112021.9964539,2011.186524822695,72.68675177304964,207.25886524822695,9.586666666666668,52200.00992907801,72.80425531914894,207.31560283687944,32.67433333333334,4.5200463320463315,35.373366013071895,15.492,4.243622902270483,120.43132328308208,6.9371444695259585,11.728636363636362,19.495495495495497
123,Collin Johnson,2023,3.0,1.0,1.0,11.0,7.0,4.0,0.0,0.0,2.1,0.001,0.002,0.0,11.0,11.0,0.0,0.0,1.0,0.0,0.0,11.0,11.0,1.0,0.0,11.0,0.0,11.0,2.1,0.0,0.223,242,0.001,2020.0,5.0,19.0,165.0,78.0,222.0,26,7,10,0,0.412,3.0,55.0,18.33333333333333,30.0,10.0,390.0,130.0,560.0,186.66666666666663,87.0,29.0,3.0,1.0,0.0,0.0,87.00000143051147,29.00000047683716,30.0,10.0,3.0,1.0,390.0,130.0,18.0,6.0,789.0,263.0,0.0,0.0,0.0,0.0,0.055,7.09,13.0,0.0,0.0,0.1,13.0,0.0,21.67,0.0,21.67,4.83,3.0,6.0,17709.69645390071,20112021.9964539,2011.186524822695,72.68675177304964,207.25886524822695,9.586666666666668,52200.00992907801,72.80425531914894,207.31560283687944,32.67433333333334,4.5200463320463315,35.373366013071895,15.492,4.243622902270483,120.43132328308208,6.9371444695259585,11.728636363636362,19.495495495495497
124,Colton Dowell,2023,3.0,2.0,1.0,3.0,40.0,0.0,0.0,0.0,1.3,0.008,0.003,0.0,1.5,3.0,0.0,0.0,1.0,0.0,0.0,3.0,3.0,1.0,0.0,3.0,0.0,3.0,1.3,0.0,0.098,96,0.0,2023.0,7.0,11.0,228.0,75.0,212.0,24,6,11,0,0.353,0.0,2.0,2.0,1.0,1.0,3.0,3.0,40.0,40.0,0.0,0.0,0.0,0.0,0.0,0.0,1.2999999523162842,1.2999999523162842,1.0,1.0,0.0,0.0,3.0,3.0,1.0,1.0,96.0,96.0,0.0,0.0,0.0,0.0,0.0,1.5,3.0,0.0,0.0,0.0,3.0,0.0,3.0,0.0,3.0,1.3,1.0,1.0,17709.69645390071,20112021.9964539,2011.186524822695,72.68675177304964,207.25886524822695,9.586666666666668,52200.00992907801,72.80425531914894,207.31560283687944,32.67433333333334,4.5200463320463315,35.373366013071895,15.492,4.243622902270483,120.43132328308208,6.9371444695259585,11.728636363636362,19.495495495495497
125,Cooper Kupp,2023,1.0,97.0,59.0,739.0,781.0,322.0,6.0,0.0,168.6,0.171,0.165,0.062,7.62,12.53,0.0,-3.0,60.0,6.0,0.1,736.0,12.27,12.0,0.0,61.58,-0.25,61.33,14.05,0.0,0.906,988,0.071,2017.0,3.0,5.0,69.0,74.0,207.0,30,10,7,0,0.588,6.0,795.0,132.5,567.0,94.5,7087.0,1181.1666666666667,6155.0,1025.8333333333333,3311.0,551.8333333333334,56.0,9.333333333333334,2.0,0.3333333333333333,1624.6000213623047,270.7666702270508,595.0,99.16666666666669,57.0,9.5,7216.0,1202.6666666666667,92.0,15.333333333333334,6220.0,1036.6666666666667,0.0,0.0,0.0,0.0,0.07,8.91,12.5,0.042,5.38,0.1,12.13,0.0,77.03,1.4,78.43,17.66,2.0,8.0,19799.0,20170069.0,2017.0,73.75,204.0,9.586666666666668,99004.0,74.0,205.0,32.67433333333334,4.62,31.0,15.492,4.08,116.0,6.75,11.728636363636362,37.0
126,Corey Brown,2016,2.0,54.0,27.0,271.0,535.0,107.0,1.0,0.0,60.7,0.117,0.103,0.019,5.02,10.04,0.0,3.0,29.0,1.0,0.03,277.0,9.55,15.0,0.0,18.07,0.4,18.47,4.05,0.0,0.528,553,0.029,2014.0,8.0,48.0,263.0,71.0,190.0,25,6,10,0,0.375,2.0,144.0,72.0,79.0,39.5,1014.0,507.0,1839.0,919.5,240.0,120.0,7.0,3.5,0.0,0.0,236.29999923706052,118.14999961853027,95.0,47.5,7.0,3.5,1153.0,576.5,40.0,20.0,1730.0,865.0,0.0,0.0,0.0,0.0,0.049,7.04,12.84,0.0,8.69,0.07,12.14,0.0,25.35,3.48,28.82,5.91,4.0,11.0,18300.0,20140463.0,2014.0,71.38,178.0,9.586666666666668,43210.0,71.0,190.0,32.67433333333334,4.51,33.0,15.492,4.22,115.0,7.16,11.728636363636362,19.495495495495497
127,Corey Coleman,2018,2.0,8.0,5.0,71.0,100.0,8.0,0.0,0.0,12.6,0.019,0.014,0.0,8.88,14.2,0.0,5.0,6.0,0.0,0.0,76.0,12.67,6.0,0.0,11.83,0.83,12.67,2.1,0.0,0.256,252,0.008,2016.0,1.0,15.0,15.0,71.0,185.0,24,5,11,0,0.312,2.0,139.0,69.5,61.0,30.5,789.0,394.5,1899.0,949.5,163.0,81.5,5.0,2.5,0.0,0.0,171.40000343322754,85.70000171661377,64.0,32.0,5.0,2.5,804.0,402.0,25.0,12.5,1908.0,954.0,0.0,0.0,0.0,0.0,0.036,5.68,12.93,0.0,5.0,0.08,12.56,0.0,31.56,0.6,32.16,6.86,6.0,6.0,19369.0,20160015.0,2016.0,70.63,194.0,9.586666666666668,76706.0,71.0,185.0,32.67433333333334,4.5200463320463315,40.5,17.0,4.243622902270483,129.0,6.9371444695259585,11.728636363636362,19.495495495495497
128,Corey Davis,2022,1.0,64.0,32.0,536.0,861.0,109.0,2.0,0.0,97.6,0.196,0.119,0.031,8.38,16.75,0.0,0.0,32.0,2.0,0.06,536.0,16.75,13.0,0.0,41.23,0.0,41.23,7.51,0.0,0.7,744,0.057,2017.0,1.0,5.0,5.0,75.0,209.0,27,7,10,0,0.412,5.0,461.0,92.2,273.0,54.6,3879.0,775.8,5440.0,1088.0,1114.0,222.8,17.0,3.4,3.0,0.6,759.3999938964844,151.87999877929687,279.0,55.8,17.0,3.4,3934.0,786.8,78.0,15.6,4574.0,914.8,0.0,0.0,0.0,0.0,0.037,8.41,14.21,0.0,9.17,0.06,14.1,0.0,49.73,0.71,50.44,9.74,5.0,17.0,19696.0,20170005.0,2017.0,74.75,209.0,9.586666666666668,49008.0,75.0,209.0,32.67433333333334,4.5200463320463315,35.373366013071895,15.492,4.28,120.43132328308208,6.9371444695259585,11.728636363636362,31.0
129,Corey Washington,2014,2.0,8.0,5.0,52.0,64.0,14.0,1.0,0.0,16.2,0.012,0.014,0.125,6.5,10.4,0.0,0.0,5.0,1.0,0.2,52.0,10.4,3.0,0.0,17.33,0.0,17.33,5.4,0.0,0.075,80,0.005,2014.0,8.0,48.0,263.0,76.0,214.0,23,6,10,0,0.375,0.0,8.0,8.0,5.0,5.0,52.0,52.0,64.0,64.0,14.0,14.0,1.0,1.0,0.0,0.0,16.200000762939453,16.200000762939453,5.0,5.0,1.0,1.0,52.0,52.0,3.0,3.0,80.0,80.0,0.0,0.0,0.0,0.0,0.125,6.5,10.4,0.0,0.0,0.2,10.4,0.0,17.33,0.0,17.33,5.4,1.0,1.0,17709.69645390071,20112021.9964539,2011.186524822695,72.68675177304964,207.25886524822695,9.586666666666668,52200.00992907801,72.80425531914894,207.31560283687944,32.67433333333334,4.5200463320463315,35.373366013071895,15.492,4.243622902270483,120.43132328308208,6.9371444695259585,11.728636363636362,19.495495495495497
130,Courtland Sutton,2023,1.0,91.0,59.0,772.0,1060.0,156.0,10.0,3.0,187.2,0.218,0.15,0.11,8.48,13.08,0.0,0.0,59.0,10.0,0.17,772.0,13.08,16.0,0.0,48.25,0.0,48.25,11.7,0.0,0.785,786,0.089,2018.0,2.0,8.0,40.0,76.0,216.0,28,8,9,0,0.471,5.0,515.0,103.0,298.0,59.6,4272.0,854.4,6632.0,1326.4,960.0,192.0,24.0,4.8,3.0,0.6,864.4599857330322,172.89199714660646,305.0,61.0,24.0,4.8,4347.0,869.4,81.0,16.2,4649.0,929.8,1.0,0.0,0.0,27.0,0.047,8.3,14.34,0.0,4.2,0.08,14.25,0.67,52.74,0.26,53.67,10.67,1.0,9.0,17709.69645390071,20112021.9964539,2011.186524822695,72.68675177304964,207.25886524822695,9.586666666666668,52200.00992907801,72.80425531914894,207.31560283687944,32.67433333333334,4.5200463320463315,35.373366013071895,15.492,4.243622902270483,120.43132328308208,6.9371444695259585,11.728636363636362,19.495495495495497
131,Curtis Samuel,2023,1.0,91.0,62.0,613.0,598.0,260.0,4.0,0.0,157.2,0.157,0.192,0.044,6.74,9.89,0.143,5.57,69.0,5.0,0.07,652.0,9.45,16.0,0.0,38.31,2.44,40.75,9.82,0.0,0.564,597,0.069,2017.0,2.0,8.0,40.0,71.0,195.0,27,4,13,0,0.235,6.0,486.0,81.0,317.0,52.833333333333336,3386.0,564.3333333333334,4515.0,752.5,1214.0,202.33333333333331,22.0,3.6666666666666665,0.0,0.0,898.0999956130981,149.683332602183,438.0,73.0,29.0,4.833333333333333,4101.0,683.5,89.0,14.833333333333334,4144.0,690.6666666666666,0.0,0.0,0.0,0.0,0.045,6.97,10.68,0.058,5.91,0.07,9.36,0.0,38.04,8.03,46.08,10.09,4.0,26.0,19894.0,20170040.0,2017.0,71.0,196.0,9.586666666666668,43210.0,71.0,195.0,32.67433333333334,4.31,37.0,18.0,4.33,119.0,7.09,11.728636363636362,22.0
132,Cyril Grayson,2021,3.0,12.0,10.0,212.0,185.0,70.0,2.0,0.0,44.6,0.033,0.02,0.167,17.67,21.2,0.0,14.0,11.0,2.0,0.18,226.0,20.55,3.0,0.0,70.67,4.67,75.33,14.87,0.0,0.368,412,0.018,2017.0,8.0,48.0,263.0,71.0,178.0,28,13,4,0,0.765,4.0,16.0,4.0,11.0,2.75,215.0,53.75,258.0,64.5,71.0,17.75,2.0,0.5,0.0,0.0,45.89999842643738,11.474999606609344,12.0,3.0,2.0,0.5,229.0,57.25,6.0,1.5,694.0,173.5,0.0,0.0,0.0,0.0,0.125,13.44,19.55,0.0,14.0,0.17,19.08,0.0,35.83,2.33,38.17,7.65,2.0,2.0,17709.69645390071,20112021.9964539,2011.186524822695,72.68675177304964,207.25886524822695,9.586666666666668,52200.00992907801,72.80425531914894,207.31560283687944,32.67433333333334,4.5200463320463315,35.373366013071895,15.492,4.243622902270483,120.43132328308208,6.9371444695259585,11.728636363636362,19.495495495495497
133,D'Wayne Eskridge,2023,2.0,1.0,0.0,0.0,17.0,0.0,0.0,0.0,0.5,0.004,0.002,0.0,0.0,0.0,0.0,2.5,2.0,0.0,0.0,5.0,2.5,3.0,0.0,0.0,1.67,1.67,0.17,0.0,0.097,95,0.001,2021.0,2.0,24.0,56.0,69.0,190.0,26,9,8,0,0.529,2.0,34.0,17.0,17.0,8.5,122.0,61.0,323.0,161.5,78.0,39.0,1.0,0.5,0.0,0.0,42.59999942779541,21.299999713897705,25.0,12.5,1.0,0.5,196.0,98.0,19.0,9.5,690.0,345.0,0.0,0.0,0.0,0.0,0.029,3.59,7.18,0.0,9.25,0.04,7.84,0.0,6.42,3.89,10.32,2.24,5.0,11.0,17709.69645390071,20112021.9964539,2011.186524822695,72.68675177304964,207.25886524822695,9.586666666666668,52200.00992907801,72.80425531914894,207.31560283687944,32.67433333333334,4.5200463320463315,35.373366013071895,15.492,4.243622902270483,120.43132328308208,6.9371444695259585,11.728636363636362,19.495495495495497
134,D.J. Chark,2023,1.0,66.0,35.0,525.0,1016.0,84.0,5.0,1.0,114.5,0.223,0.126,0.076,7.95,15.0,0.0,0.0,35.0,5.0,0.14,525.0,15.0,14.0,0.0,37.5,0.0,37.5,8.18,0.0,0.757,828,0.068,2018.0,2.0,29.0,61.0,75.0,200.0,27,2,15,0,0.118,5.0,387.0,77.4,212.0,42.4,3071.0,614.2,5179.0,1035.8,766.0,153.2,23.0,4.6,2.0,0.4,653.100004196167,130.6200008392334,214.0,42.8,23.0,4.6,3091.0,618.2,66.0,13.2,4301.0,860.2,0.0,0.0,0.0,0.0,0.059,7.94,14.49,0.0,10.0,0.11,14.44,0.0,46.53,0.3,46.83,9.9,4.0,18.0,19999.0,20180061.0,2018.0,75.0,199.0,9.586666666666668,70803.0,76.0,198.0,32.67433333333334,4.34,40.0,16.0,4.243622902270483,129.0,6.9371444695259585,11.728636363636362,19.495495495495497
135,D.J. Montgomery,2023,2.0,8.0,3.0,56.0,97.0,28.0,1.0,0.0,14.6,0.015,0.012,0.125,7.0,18.67,0.0,0.0,3.0,1.0,0.33,56.0,18.67,2.0,0.0,28.0,0.0,28.0,7.3,0.0,0.259,281,0.006,2019.0,8.0,48.0,263.0,73.0,201.0,27,9,8,0,0.529,4.0,14.0,3.5,6.0,1.5,92.0,23.0,136.0,34.0,43.0,10.75,1.0,0.25,0.0,0.0,21.20000028610229,5.300000071525574,6.0,1.5,1.0,0.25,92.0,23.0,3.0,0.75,550.0,137.5,0.0,0.0,0.0,0.0,0.071,6.57,15.33,0.0,0.0,0.17,15.33,0.0,30.67,0.0,30.67,7.07,1.0,1.0,17709.69645390071,20112021.9964539,2011.186524822695,72.68675177304964,207.25886524822695,9.586666666666668,52200.00992907801,72.80425531914894,207.31560283687944,32.67433333333334,4.5200463320463315,35.373366013071895,15.492,4.243622902270483,120.43132328308208,6.9371444695259585,11.728636363636362,19.495495495495497
136,D.J. Moore,2023,1.0,138.0,96.0,1364.0,1476.0,539.0,8.0,1.0,285.5,0.306,0.26,0.058,9.88,14.21,0.25,5.25,100.0,9.0,0.09,1385.0,13.85,17.0,0.0,80.24,1.24,81.47,16.79,0.0,0.906,986,0.155,2018.0,1.0,24.0,24.0,71.0,210.0,26,7,10,0,0.412,5.0,756.0,151.2,460.0,92.0,6571.0,1314.2,8524.0,1704.8,2344.0,468.8,29.0,5.8,4.0,0.8,1317.6999969482422,263.5399993896484,504.0,100.8,30.0,6.0,6927.0,1385.4,97.0,19.4,5346.0,1069.2,0.0,0.0,0.0,0.0,0.038,8.69,14.28,0.023,8.28,0.06,13.74,0.0,67.74,3.67,71.41,13.58,1.0,5.0,20143.0,20180024.0,2018.0,72.0,210.0,9.586666666666668,20740.0,71.0,215.0,32.67433333333334,4.42,39.5,15.0,4.07,132.0,6.95,11.728636363636362,19.495495495495497
137,D.J. Turner,2022,2.0,1.0,0.0,0.0,-3.0,0.0,0.0,0.0,2.6,0.001,0.002,0.0,0.0,0.0,0.0,6.5,4.0,0.0,0.0,26.0,6.5,2.0,0.0,0.0,13.0,13.0,1.3,0.0,0.06,62,0.003,2021.0,8.0,48.0,263.0,69.0,205.0,25,6,11,0,0.353,1.0,1.0,1.0,0.0,0.0,0.0,0.0,-3.0,-3.0,0.0,0.0,0.0,0.0,0.0,0.0,2.5999999046325684,2.5999999046325684,4.0,4.0,0.0,0.0,26.0,26.0,2.0,2.0,62.0,62.0,0.0,0.0,0.0,0.0,0.0,0.0,0.0,0.0,6.5,0.0,6.5,0.0,0.0,13.0,13.0,1.3,1.0,1.0,17709.69645390071,20112021.9964539,2011.186524822695,72.68675177304964,207.25886524822695,9.586666666666668,52200.00992907801,72.80425531914894,207.31560283687944,32.67433333333334,4.5200463320463315,35.373366013071895,15.492,4.243622902270483,120.43132328308208,6.9371444695259585,11.728636363636362,19.495495495495497
138,DK Metcalf,2023,1.0,119.0,66.0,1114.0,1529.0,367.0,8.0,0.0,225.4,0.376,0.272,0.067,9.36,16.88,0.0,0.0,66.0,8.0,0.12,1114.0,16.88,16.0,0.0,69.62,0.0,69.62,14.09,0.0,0.843,829,0.115,2019.0,2.0,32.0,64.0,76.0,235.0,26,9,8,0,0.529,4.0,621.0,155.25,372.0,93.0,5334.0,1333.5,7807.0,1951.75,1550.0,387.5,44.0,11.0,6.0,1.5,1153.0999908447266,288.27499771118164,375.0,93.75,44.0,11.0,5351.0,1337.75,82.0,20.5,4259.0,1064.75,0.0,0.0,0.0,0.0,0.071,8.59,14.34,0.0,5.67,0.12,14.27,0.0,65.05,0.21,65.26,14.06,3.0,5.0,17709.69645390071,20112021.9964539,2011.186524822695,72.68675177304964,207.25886524822695,9.586666666666668,52200.00992907801,72.80425531914894,207.31560283687944,32.67433333333334,4.5200463320463315,35.373366013071895,15.492,4.243622902270483,120.43132328308208,6.9371444695259585,11.728636363636362,19.495495495495497
139,Da'Mari Scott,2019,3.0,3.0,2.0,22.0,19.0,14.0,0.0,0.0,4.7,0.004,0.005,0.0,7.33,11.0,0.0,5.0,3.0,0.0,0.0,27.0,9.0,2.0,0.0,11.0,2.5,13.5,2.35,0.0,0.152,153,0.003,2018.0,8.0,48.0,263.0,72.0,205.0,24,4,12,0,0.25,1.0,3.0,3.0,2.0,2.0,22.0,22.0,19.0,19.0,14.0,14.0,0.0,0.0,0.0,0.0,4.699999809265137,4.699999809265137,3.0,3.0,0.0,0.0,27.0,27.0,2.0,2.0,153.0,153.0,0.0,0.0,0.0,0.0,0.0,7.33,11.0,0.0,5.0,0.0,9.0,0.0,11.0,2.5,13.5,2.35,3.0,5.0,17709.69645390071,20112021.9964539,2011.186524822695,72.68675177304964,207.25886524822695,9.586666666666668,52200.00992907801,72.80425531914894,207.31560283687944,32.67433333333334,4.5200463320463315,35.373366013071895,15.492,4.243622902270483,120.43132328308208,6.9371444695259585,11.728636363636362,19.495495495495497
140,Da'Rick Rogers,2013,2.0,23.0,14.0,192.0,245.0,117.0,2.0,0.0,45.2,0.038,0.035,0.087,8.35,13.71,0.0,0.0,15.0,2.0,0.13,192.0,12.8,4.0,0.0,48.0,0.0,48.0,11.3,0.0,0.598,605,0.02,2013.0,8.0,48.0,263.0,75.0,215.0,22,11,5,0,0.688,0.0,23.0,23.0,14.0,14.0,192.0,192.0,245.0,245.0,117.0,117.0,2.0,2.0,0.0,0.0,45.20000076293945,45.20000076293945,15.0,15.0,2.0,2.0,192.0,192.0,4.0,4.0,605.0,605.0,0.0,0.0,0.0,0.0,0.087,8.35,13.71,0.0,0.0,0.13,12.8,0.0,48.0,0.0,48.0,11.3,1.0,5.0,18187.0,20130630.0,2013.0,74.5,217.0,9.586666666666668,38505.0,75.0,208.0,32.67433333333334,4.52,39.5,10.0,4.06,132.0,6.71,11.728636363636362,19.495495495495497
141,DaeSean Hamilton,2020,2.0,44.0,23.0,293.0,591.0,95.0,2.0,1.0,61.3,0.122,0.073,0.045,6.66,12.74,0.0,0.0,23.0,2.0,0.09,293.0,12.74,12.0,0.0,24.42,0.0,24.42,5.11,0.0,0.487,497,0.032,2018.0,4.0,13.0,113.0,73.0,206.0,25,5,11,0,0.312,2.0,142.0,71.0,81.0,40.5,833.0,416.5,1411.0,705.5,290.0,145.0,5.0,2.5,1.0,0.5,191.3000030517578,95.6500015258789,81.0,40.5,5.0,2.5,833.0,416.5,32.0,16.0,1600.0,800.0,0.0,0.0,0.0,0.0,0.035,5.87,10.28,0.0,0.0,0.06,10.28,0.0,26.03,0.0,26.03,5.98,1.0,3.0,20063.0,20180113.0,2018.0,73.0,203.0,9.586666666666668,16802.0,73.0,203.0,32.67433333333334,4.5200463320463315,34.5,15.492,4.15,118.0,6.84,11.728636363636362,19.495495495495497
142,Damian Williams,2013,2.0,23.0,15.0,178.0,266.0,47.0,0.0,0.0,32.8,0.056,0.04,0.0,7.74,11.87,0.0,0.0,15.0,0.0,0.0,178.0,11.87,8.0,0.0,22.25,0.0,22.25,4.1,0.0,0.362,368,0.02,2010.0,3.0,13.0,77.0,73.0,200.0,25,7,9,0,0.438,3.0,68.0,22.666666666666668,45.0,15.0,502.0,167.33333333333334,688.0,229.33333333333331,122.0,40.66666666666666,2.0,0.6666666666666666,0.0,0.0,107.20000076293944,35.733333587646484,45.0,15.0,2.0,0.6666666666666666,502.0,167.33333333333334,21.0,7.0,822.0,274.0,0.0,0.0,0.0,0.0,0.029,7.38,11.16,0.0,0.0,0.04,11.16,0.0,23.9,0.0,23.9,5.1,6.0,11.0,17326.0,20100077.0,2010.0,72.63,197.0,9.586666666666668,90089.0,73.0,193.0,32.67433333333334,4.52,38.0,19.0,4.24,118.0,6.79,11.728636363636362,19.495495495495497
143,Damiere Byrd,2022,2.0,23.0,13.0,268.0,468.0,105.0,2.0,0.0,51.8,0.094,0.036,0.087,11.65,20.62,0.0,0.0,13.0,2.0,0.15,268.0,20.62,12.0,0.0,22.33,0.0,22.33,4.32,0.0,0.361,361,0.032,2015.0,8.0,48.0,263.0,69.0,175.0,29,7,10,0,0.412,7.0,205.0,29.285714285714285,130.0,18.571428571428573,1691.0,241.57142857142856,2316.0,330.85714285714283,608.0,86.85714285714286,7.0,1.0,1.0,0.1428571428571428,340.80000138282776,48.68571448326111,133.0,19.0,7.0,1.0,1718.0,245.42857142857144,59.0,8.428571428571429,3049.0,435.57142857142856,0.0,0.0,0.0,0.0,0.034,8.25,13.01,0.0,9.0,0.05,12.92,0.0,28.66,0.46,29.12,5.78,3.0,6.0,17709.69645390071,20112021.9964539,2011.186524822695,72.68675177304964,207.25886524822695,9.586666666666668,52200.00992907801,72.80425531914894,207.31560283687944,32.67433333333334,4.5200463320463315,35.373366013071895,15.492,4.243622902270483,120.43132328308208,6.9371444695259585,11.728636363636362,19.495495495495497
144,Damion Ratley,2020,2.0,10.0,4.0,63.0,104.0,10.0,0.0,0.0,10.3,0.02,0.018,0.0,6.3,15.75,0.0,0.0,4.0,0.0,0.0,63.0,15.75,5.0,0.0,12.6,0.0,12.6,2.06,0.0,0.392,372,0.008,2018.0,6.0,1.0,175.0,74.0,200.0,25,6,10,0,0.375,2.0,55.0,27.5,29.0,14.5,407.0,203.5,638.0,319.0,108.0,54.0,1.0,0.5,0.0,0.0,75.69999980926514,37.84999990463257,29.0,14.5,1.0,0.5,407.0,203.5,19.0,9.5,903.0,451.5,0.0,0.0,0.0,0.0,0.018,7.4,14.03,0.0,0.0,0.03,14.03,0.0,21.42,0.0,21.42,3.98,3.0,6.0,17709.69645390071,20112021.9964539,2011.186524822695,72.68675177304964,207.25886524822695,9.586666666666668,52200.00992907801,72.80425531914894,207.31560283687944,32.67433333333334,4.5200463320463315,35.373366013071895,15.492,4.243622902270483,120.43132328308208,6.9371444695259585,11.728636363636362,19.495495495495497
145,Damion Willis,2019,2.0,16.0,9.0,82.0,179.0,16.0,0.0,0.0,17.2,0.038,0.027,0.0,5.12,9.11,0.0,0.0,9.0,0.0,0.0,82.0,9.11,7.0,0.0,11.71,0.0,11.71,2.46,0.0,0.322,333,0.009,2019.0,8.0,48.0,263.0,75.0,204.0,22,2,14,0,0.125,0.0,16.0,16.0,9.0,9.0,82.0,82.0,179.0,179.0,16.0,16.0,0.0,0.0,0.0,0.0,17.200000762939453,17.200000762939453,9.0,9.0,0.0,0.0,82.0,82.0,7.0,7.0,333.0,333.0,0.0,0.0,0.0,0.0,0.0,5.12,9.11,0.0,0.0,0.0,9.11,0.0,11.71,0.0,11.71,2.46,3.0,6.0,17709.69645390071,20112021.9964539,2011.186524822695,72.68675177304964,207.25886524822695,9.586666666666668,52200.00992907801,72.80425531914894,207.31560283687944,32.67433333333334,4.5200463320463315,35.373366013071895,15.492,4.243622902270483,120.43132328308208,6.9371444695259585,11.728636363636362,19.495495495495497
146,Daniel Braverman,2016,3.0,2.0,0.0,0.0,22.0,0.0,0.0,0.0,0.0,0.005,0.004,0.0,0.0,0.0,0.0,0.0,0.0,0.0,0.0,0.0,0.0,2.0,0.0,0.0,0.0,0.0,0.0,0.0,0.1,95,0.0,2016.0,7.0,9.0,230.0,70.0,185.0,23,3,13,0,0.188,0.0,2.0,2.0,0.0,0.0,0.0,0.0,22.0,22.0,0.0,0.0,0.0,0.0,0.0,0.0,0.0,0.0,0.0,0.0,0.0,0.0,0.0,0.0,2.0,2.0,95.0,95.0,0.0,0.0,0.0,0.0,0.0,0.0,0.0,0.0,0.0,0.0,0.0,0.0,0.0,0.0,0.0,0.0,2.0,8.0,17709.69645390071,20112021.9964539,2011.186524822695,72.68675177304964,207.25886524822695,9.586666666666668,52200.00992907801,72.80425531914894,207.31560283687944,32.67433333333334,4.5200463320463315,35.373366013071895,15.492,4.243622902270483,120.43132328308208,6.9371444695259585,11.728636363636362,19.495495495495497
147,Danny Amendola,2021,2.0,39.0,24.0,250.0,321.0,105.0,3.0,0.0,67.0,0.073,0.067,0.077,6.41,10.42,0.0,0.0,25.0,3.0,0.12,250.0,10.0,8.0,0.0,31.25,0.0,31.25,8.38,2.08,0.388,390,0.03,2008.0,8.0,48.0,263.0,71.0,185.0,36,4,13,0,0.235,13.0,611.0,47.0,421.0,32.38461538461539,4488.0,345.2307692307692,4842.0,372.46153846153845,1704.0,131.07692307692307,20.0,1.5384615384615383,1.0,0.0769230769230769,1003.3199844360352,77.17846034123347,430.0,33.07692307692308,22.0,1.6923076923076923,4583.0,352.5384615384615,118.0,9.076923076923077,4812.0,370.1538461538461,0.75,0.0,0.5,20.75,0.033,7.35,10.66,0.0,2.4,0.05,10.66,0.7,38.03,0.1,38.84,8.5,5.0,59.0,17709.69645390071,20112021.9964539,2011.186524822695,72.68675177304964,207.25886524822695,9.586666666666668,52200.00992907801,72.80425531914894,207.31560283687944,32.67433333333334,4.5200463320463315,35.373366013071895,15.492,4.243622902270483,120.43132328308208,6.9371444695259585,11.728636363636362,19.495495495495497
148,Danny Gray,2022,2.0,7.0,1.0,10.0,160.0,4.0,0.0,0.0,2.9,0.042,0.015,0.0,1.43,10.0,0.0,9.0,2.0,0.0,0.0,19.0,9.5,5.0,0.0,2.0,1.8,3.8,0.58,0.0,0.104,107,0.002,2022.0,3.0,41.0,105.0,72.0,200.0,23,13,4,0,0.765,0.0,7.0,7.0,1.0,1.0,10.0,10.0,160.0,160.0,4.0,4.0,0.0,0.0,0.0,0.0,2.900000095367432,2.900000095367432,2.0,2.0,0.0,0.0,19.0,19.0,5.0,5.0,107.0,107.0,0.0,0.0,0.0,0.0,0.0,1.43,10.0,0.0,9.0,0.0,9.5,0.0,2.0,1.8,3.8,0.58,1.0,1.0,17709.69645390071,20112021.9964539,2011.186524822695,72.68675177304964,207.25886524822695,9.586666666666668,52200.00992907801,72.80425531914894,207.31560283687944,32.67433333333334,4.5200463320463315,35.373366013071895,15.492,4.243622902270483,120.43132328308208,6.9371444695259585,11.728636363636362,19.495495495495497
149,Dante Pettis,2022,2.0,42.0,19.0,245.0,371.0,63.0,3.0,0.0,65.2,0.077,0.079,0.071,5.83,12.89,0.0,18.5,21.0,3.0,0.14,282.0,13.43,14.0,0.0,17.5,2.64,20.14,4.66,0.0,0.512,504,0.036,2018.0,2.0,12.0,44.0,73.0,195.0,27,3,14,0,0.176,4.0,133.0,33.25,71.0,17.75,984.0,246.0,1274.0,318.5,335.0,83.75,12.0,3.0,0.0,0.0,246.17999839782715,61.54499959945679,76.0,19.0,12.0,3.0,1051.0,262.75,35.0,8.75,2164.0,541.0,1.0,0.0,0.0,16.0,0.09,7.4,13.86,0.0,11.67,0.16,13.83,0.91,28.11,1.0,30.03,7.03,3.0,8.0,20160.0,20180044.0,2018.0,72.0,186.0,9.586666666666668,98195.0,73.0,195.0,32.67433333333334,4.5200463320463315,35.373366013071895,15.492,4.243622902270483,120.43132328308208,6.9371444695259585,11.728636363636362,19.495495495495497
150,Dareke Young,2022,3.0,2.0,2.0,24.0,1.0,23.0,0.0,0.0,4.4,0.0,0.005,0.0,12.0,12.0,0.0,0.0,2.0,0.0,0.0,24.0,12.0,1.0,0.0,24.0,0.0,24.0,4.4,0.0,0.122,126,0.002,2022.0,7.0,12.0,233.0,74.0,224.0,23,9,8,0,0.529,0.0,2.0,2.0,2.0,2.0,24.0,24.0,1.0,1.0,23.0,23.0,0.0,0.0,0.0,0.0,4.400000095367432,4.400000095367432,2.0,2.0,0.0,0.0,24.0,24.0,1.0,1.0,126.0,126.0,0.0,0.0,0.0,0.0,0.0,12.0,12.0,0.0,0.0,0.0,12.0,0.0,24.0,0.0,24.0,4.4,1.0,1.0,17709.69645390071,20112021.9964539,2011.186524822695,72.68675177304964,207.25886524822695,9.586666666666668,52200.00992907801,72.80425531914894,207.31560283687944,32.67433333333334,4.5200463320463315,35.373366013071895,15.492,4.243622902270483,120.43132328308208,6.9371444695259585,11.728636363636362,19.495495495495497
151,Darius Jennings,2019,2.0,5.0,2.0,17.0,77.0,14.0,0.0,0.0,3.7,0.016,0.009,0.0,3.4,8.5,0.0,0.0,2.0,0.0,0.0,17.0,8.5,4.0,0.0,4.25,0.0,4.25,0.93,0.0,0.098,90,0.002,2015.0,8.0,48.0,263.0,70.0,180.0,27,9,7,0,0.562,4.0,41.0,10.25,27.0,6.75,235.0,58.75,369.0,92.25,88.0,22.0,0.0,0.0,0.0,0.0,51.540000200271606,12.885000050067902,29.0,7.25,0.0,0.0,258.0,64.5,15.0,3.75,989.0,247.25,1.0,0.0,0.0,21.0,0.0,5.73,8.7,0.0,2.0,0.0,8.9,1.4,15.67,0.13,17.2,3.44,1.0,1.0,17709.69645390071,20112021.9964539,2011.186524822695,72.68675177304964,207.25886524822695,9.586666666666668,52200.00992907801,72.80425531914894,207.31560283687944,32.67433333333334,4.5200463320463315,35.373366013071895,15.492,4.243622902270483,120.43132328308208,6.9371444695259585,11.728636363636362,19.495495495495497
152,Darius Slayton,2023,2.0,79.0,50.0,770.0,967.0,298.0,4.0,0.0,151.0,0.188,0.141,0.051,9.75,15.4,0.0,0.0,50.0,4.0,0.08,770.0,15.4,17.0,0.0,45.29,0.0,45.29,8.88,0.0,0.806,845,0.095,2019.0,5.0,33.0,171.0,73.0,198.0,26,6,11,0,0.353,4.0,389.0,97.25,220.0,55.0,3330.0,832.5,5105.0,1276.25,976.0,244.0,19.0,4.75,4.0,1.0,653.6000061035156,163.4000015258789,223.0,55.75,19.0,4.75,3316.0,829.0,73.0,18.25,3810.0,952.5,0.0,0.0,0.0,0.0,0.049,8.56,15.14,0.0,-4.67,0.09,14.87,0.0,45.62,-0.19,45.42,8.95,1.0,9.0,17709.69645390071,20112021.9964539,2011.186524822695,72.68675177304964,207.25886524822695,9.586666666666668,52200.00992907801,72.80425531914894,207.31560283687944,32.67433333333334,4.5200463320463315,35.373366013071895,15.492,4.243622902270483,120.43132328308208,6.9371444695259585,11.728636363636362,19.495495495495497
153,Darnell Mooney,2023,1.0,61.0,31.0,414.0,630.0,181.0,2.0,0.0,84.9,0.13,0.115,0.033,6.79,13.35,0.0,2.5,33.0,2.0,0.06,419.0,12.7,14.0,0.0,29.57,0.36,29.93,6.06,0.0,0.747,813,0.047,2020.0,5.0,27.0,173.0,71.0,177.0,26,7,10,0,0.412,3.0,363.0,121.0,213.0,71.0,2595.0,865.0,4041.0,1347.0,984.0,328.0,13.0,4.333333333333333,0.0,0.0,562.4000015258789,187.46666717529297,226.0,75.33333333333333,14.0,4.666666666666666,2654.0,884.6666666666666,58.0,19.33333333333333,3324.0,1108.0,0.0,0.0,0.0,0.0,0.036,7.15,12.18,0.077,4.54,0.06,11.74,0.0,44.74,1.02,45.76,9.7,2.0,10.0,17709.69645390071,20112021.9964539,2011.186524822695,72.68675177304964,207.25886524822695,9.586666666666668,52200.00992907801,72.80425531914894,207.31560283687944,32.67433333333334,4.5200463320463315,35.373366013071895,15.492,4.243622902270483,120.43132328308208,6.9371444695259585,11.728636363636362,19.495495495495497
154,Darrius Heyward-Bey,2018,3.0,2.0,1.0,9.0,25.0,10.0,0.0,0.0,1.2,0.005,0.003,0.0,4.5,9.0,0.0,-7.0,2.0,0.0,0.0,2.0,1.0,3.0,0.0,3.0,-2.33,0.67,0.4,0.0,0.079,82,0.0,2009.0,1.0,7.0,7.0,74.0,210.0,31,9,7,1,0.529,9.0,135.0,15.0,62.0,6.888888888888889,828.0,92.0,1911.0,212.33333333333331,246.0,27.33333333333333,5.0,0.5555555555555556,1.0,0.1111111111111111,194.89999961853027,21.65555551317003,69.0,7.666666666666667,7.0,0.7777777777777778,939.0,104.33333333333331,44.0,4.888888888888889,1666.0,185.11111111111111,0.0,0.0,0.0,0.0,0.037,6.13,13.35,0.286,15.86,0.1,13.61,0.0,18.82,2.52,21.34,4.43,2.0,22.0,16885.0,20090007.0,2009.0,73.63,210.0,9.586666666666668,20740.0,74.0,210.0,32.67433333333334,4.25,38.5,16.0,4.18,126.0,6.8,11.728636363636362,19.495495495495497
155,Darrius Shepherd,2020,2.0,8.0,5.0,46.0,120.0,18.0,0.0,0.0,9.6,0.027,0.013,0.0,5.75,9.2,0.0,0.0,5.0,0.0,0.0,46.0,9.2,6.0,0.0,7.67,0.0,7.67,1.6,0.0,0.27,261,0.004,2019.0,8.0,48.0,263.0,71.0,186.0,25,13,3,0,0.812,1.0,10.0,10.0,6.0,6.0,47.0,47.0,128.0,128.0,21.0,21.0,0.0,0.0,0.0,0.0,10.700000405311584,10.700000405311584,6.0,6.0,0.0,0.0,47.0,47.0,7.0,7.0,406.0,406.0,0.0,0.0,0.0,0.0,0.0,4.7,7.83,0.0,0.0,0.0,7.83,0.0,6.71,0.0,6.71,1.53,2.0,5.0,17709.69645390071,20112021.9964539,2011.186524822695,72.68675177304964,207.25886524822695,9.586666666666668,52200.00992907801,72.80425531914894,207.31560283687944,32.67433333333334,4.5200463320463315,35.373366013071895,15.492,4.243622902270483,120.43132328308208,6.9371444695259585,11.728636363636362,19.495495495495497
156,Darvin Kidsy,2018,2.0,2.0,1.0,8.0,18.0,2.0,0.0,0.0,1.8,0.005,0.004,0.0,4.0,8.0,0.0,0.0,1.0,0.0,0.0,8.0,8.0,1.0,0.0,8.0,0.0,8.0,1.8,0.0,0.135,129,0.001,2018.0,8.0,48.0,263.0,72.0,180.0,23,7,9,0,0.438,0.0,2.0,2.0,1.0,1.0,8.0,8.0,18.0,18.0,2.0,2.0,0.0,0.0,0.0,0.0,1.7999999523162842,1.7999999523162842,1.0,1.0,0.0,0.0,8.0,8.0,1.0,1.0,129.0,129.0,0.0,0.0,0.0,0.0,0.0,4.0,8.0,0.0,0.0,0.0,8.0,0.0,8.0,0.0,8.0,1.8,2.0,2.0,17709.69645390071,20112021.9964539,2011.186524822695,72.68675177304964,207.25886524822695,9.586666666666668,52200.00992907801,72.80425531914894,207.31560283687944,32.67433333333334,4.5200463320463315,35.373366013071895,15.492,4.243622902270483,120.43132328308208,6.9371444695259585,11.728636363636362,19.495495495495497
